ann_hour	month	day	hour	illum	dgp	dgp_t1	dgp_t2	ugr	srcarea	log_gc	gcr	ugp	maxlum
9	1	1	9.5	393.29023	0.28912	0.02309	0.10603	26.34915	0.00019	1.15504	76.26275	0.63166	304300.0
10	1	1	10.5	959.71899	0.21804	0.05634	0.00171	9.17648	0.02853	0.01862	2.94565	0.30432	2094.55722
11	1	1	11.5	935.74731	0.38565	0.05493	0.17072	34.99146	0.0002	1.85966	266.51713	0.75439	1278728.63733
34	1	2	10.5	636.76054	0.19738	0.03738	0.0	0.0	0.0	0.0	2.51839	0.14352	1234.76278
35	1	2	11.5	1136.26825	0.4254	0.0667	0.19871	38.16705	0.00022	2.16455	515.53405	0.79033	2377120.0
36	1	2	12.5	1339.82016	0.45641	0.07865	0.21776	40.5329	0.00021	2.37213	957.96434	0.81412	3585728.0
37	1	2	13.5	1453.56717	0.48965	0.08532	0.24433	43.3248	0.0009	2.66154	1664.56146	0.83913	4891650.47485
38	1	2	14.5	1033.56756	0.44172	0.06067	0.22105	40.01873	0.00333	2.40793	1014.25955	0.80915	2944192.0
39	1	2	15.5	509.93741	0.18993	0.02993	0.0	0.0	0.0	0.0	3.15223	0.14352	1873.04827
106	1	5	10.5	980.47117	0.22123	0.05755	0.00367	12.15777	0.06998	0.04001	2.97948	0.36378	2172.86972
107	1	5	11.5	1377.64463	0.46242	0.08087	0.22155	40.91333	0.00015	2.41343	908.7483	0.81771	3550495.08459
108	1	5	12.5	1357.69001	0.45019	0.0797	0.2105	39.90313	0.00442	2.293	807.45703	0.80802	3494080.0
109	1	5	13.5	1462.93721	0.47613	0.08587	0.23025	41.99234	0.00259	2.5082	1193.58075	0.82759	4456384.0
110	1	5	14.5	1175.95054	0.45673	0.06903	0.2277	41.11286	0.02284	2.48044	1208.83349	0.81958	3445111.19134
111	1	5	15.5	554.09697	0.1926	0.03253	7e-05	0.0	0.00132	0.00081	3.22939	0.14352	2116.2074
181	1	8	13.5	751.85414	0.3457	0.04413	0.14157	31.65349	0.00023	1.54211	145.12845	0.71138	799056.0
182	1	8	14.5	902.49353	0.40466	0.05298	0.19169	36.83969	0.00023	2.08808	521.20447	0.77588	1873056.0
183	1	8	15.5	512.28447	0.19007	0.03007	0.0	0.0	0.0	0.0	3.0657	0.14352	1814.1449
201	1	9	9.5	397.90687	0.28023	0.02336	0.09687	25.5062	0.0002	1.05528	64.56047	0.61773	294276.0
202	1	9	10.5	876.68243	0.21146	0.05146	0.0	0.0	0.0	0.0	2.79993	0.14352	1815.59455
203	1	9	11.5	978.39066	0.38272	0.05743	0.16529	34.62907	0.00022	1.80055	246.03118	0.74999	1389040.0
225	1	10	9.5	416.16213	0.28617	0.02443	0.10174	26.10868	0.00019	1.10832	73.77436	0.62772	320052.0
226	1	10	10.5	1059.63593	0.22971	0.0622	0.00751	15.48452	0.2176	0.08183	3.04479	0.43077	2408.53205
227	1	10	11.5	1862.44098	0.51385	0.10933	0.24452	44.68093	0.25447	2.66366	1583.76924	0.85017	6804864.0
228	1	10	12.5	1948.58925	0.52953	0.11438	0.25515	45.38	0.01087	2.77942	2444.83959	0.85558	8028137.66251
229	1	10	13.5	1846.72549	0.52461	0.1084	0.25621	45.31079	0.01314	2.79095	2324.63184	0.85506	7383234.24151
230	1	10	14.5	1413.96118	0.48738	0.083	0.24438	43.42163	0.07679	2.66204	1810.00017	0.83994	5556160.0
231	1	10	15.5	607.10477	0.19655	0.03564	0.00091	5.52175	0.01514	0.00995	3.23961	0.23482	2310.0856
249	1	11	9.5	317.99105	0.30928	0.01867	0.13061	28.02703	0.00018	1.42281	152.23151	0.65838	373752.0
250	1	11	10.5	759.87039	0.2046	0.0446	0.0	0.0	0.0	0.0	2.69223	0.14352	1500.8949
251	1	11	11.5	1495.78387	0.46908	0.0878	0.22128	41.14918	0.00062	2.41047	946.1468	0.81991	3947412.90879
252	1	11	12.5	1841.43331	0.51035	0.10809	0.24225	43.92647	0.01144	2.63893	1811.39714	0.84411	6510534.22689
253	1	11	13.5	1817.39541	0.52298	0.10668	0.2563	45.22279	0.01413	2.79191	2346.97059	0.85438	7338591.36108
254	1	11	14.5	1416.86582	0.48485	0.08317	0.24168	43.16762	0.07608	2.63273	1716.34133	0.83781	5327040.0
255	1	11	15.5	617.63824	0.19736	0.03626	0.00111	6.26684	0.01824	0.01207	3.25924	0.24854	2363.05722
417	1	18	9.5	467.10036	0.28169	0.02742	0.09428	25.73714	0.00018	1.02696	67.14179	0.62158	350124.0
418	1	18	10.5	1338.75299	0.44508	0.07858	0.20649	40.3404	0.27063	2.24937	765.55963	0.81227	3585728.0
419	1	18	11.5	1917.52034	0.50698	0.11256	0.23442	43.82425	0.24853	2.55358	1360.01153	0.84328	6667392.0
420	1	18	12.5	2001.62444	0.51817	0.1175	0.24067	44.13417	0.01981	2.62171	1853.14436	0.8458	7812992.0
421	1	18	13.5	1795.25639	0.50307	0.10538	0.23769	43.40496	0.01358	2.58921	1608.52117	0.8398	6621568.0
422	1	18	14.5	1274.03095	0.4509	0.07479	0.21611	40.30741	0.04398	2.35416	1011.18358	0.81195	3700288.0
423	1	18	15.5	590.25727	0.19465	0.03465	0.0	0.0	0.0	0.0	2.9609	0.14352	1915.55722
585	1	25	9.5	656.02277	0.35834	0.03851	0.15983	32.93827	0.00024	1.74104	343.79966	0.72858	1194288.0
586	1	25	10.5	1115.84557	0.41014	0.0655	0.18464	37.11777	0.06024	2.01132	523.99899	0.77897	2434400.0
587	1	25	11.5	1354.58784	0.42252	0.07951	0.18301	37.30054	0.00277	1.99353	460.69601	0.78099	2479429.09797
588	1	25	12.5	1336.28099	0.42051	0.07844	0.18207	37.21414	0.00235	1.9833	515.58206	0.78004	2511534.11522
589	1	25	13.5	1527.81935	0.4528	0.08968	0.20312	39.60792	0.00871	2.21263	792.28333	0.80511	3837760.0
590	1	25	14.5	1413.21894	0.45626	0.08296	0.2133	40.40644	0.06805	2.32357	1049.52379	0.81291	3878901.14411
591	1	25	15.5	791.39319	0.20847	0.04645	0.00202	9.22911	0.06326	0.02199	3.1189	0.30535	2718.81617
592	1	25	16.5	266.16693	0.17562	0.01562	0.0	0.0	0.0	0.0	3.36171	0.14352	1014.44094
660	1	28	12.5	1025.136	0.32639	0.06018	0.10621	29.29114	0.00075	1.15697	82.8447	0.6776	787600.0
661	1	28	13.5	1418.63363	0.42787	0.08327	0.18459	37.62636	0.00519	2.01083	535.40314	0.78454	2967104.0
662	1	28	14.5	1422.60382	0.44882	0.08351	0.20532	39.69036	0.05829	2.23658	915.0735	0.80593	3612898.69105
663	1	28	15.5	830.97838	0.2109	0.04878	0.00212	9.56695	0.0701	0.02312	3.11945	0.31201	2825.82225
664	1	28	16.5	268.99944	0.17579	0.01579	0.0	0.0	0.0	0.0	3.07272	0.14352	888.37927
681	1	29	9.5	679.3444	0.33469	0.03988	0.13481	30.72817	0.00023	1.46855	208.88673	0.69848	947984.0
682	1	29	10.5	1209.33986	0.40776	0.07099	0.17677	36.74147	0.09378	1.92557	471.1418	0.77478	2319744.06828
683	1	29	11.5	1175.4463	0.38127	0.069	0.15227	34.01264	0.00041	1.6587	237.09697	0.74235	1689760.0
686	1	29	14.5	760.28868	0.32711	0.04463	0.12248	29.92045	0.00021	1.33419	128.22523	0.68687	753232.0
687	1	29	15.5	502.91535	0.18952	0.02952	0.0	0.0	0.0	0.0	2.71179	0.14352	1241.83947
707	1	30	11.5	806.14686	0.30289	0.04732	0.09557	27.52828	0.00023	1.04106	60.34456	0.65058	548456.0
708	1	30	12.5	931.0756	0.32408	0.05465	0.10943	29.31865	0.00023	1.19205	94.65665	0.67801	799056.0
709	1	30	13.5	943.77655	0.34313	0.0554	0.12773	31.08318	0.00022	1.39143	143.05562	0.70348	965168.0
710	1	30	14.5	800.42159	0.32901	0.04698	0.12203	30.03979	0.00022	1.32928	128.87912	0.68861	787600.0
711	1	30	15.5	509.80563	0.18993	0.02993	0.0	0.0	0.0	0.0	2.7078	0.14352	1253.38938
752	2	1	8.5	146.35297	0.16859	0.00859	0.0	0.0	0.0	0.0	3.4435	0.14352	456.29981
753	2	1	9.5	776.67208	0.35169	0.04559	0.1461	32.16823	0.00019	1.59152	284.38294	0.71837	1326032.0
754	2	1	10.5	1652.01165	0.45507	0.09697	0.1981	40.30368	0.25647	2.1579	780.92822	0.81192	4639680.0
755	2	1	11.5	2086.9831	0.50105	0.12251	0.21854	42.64572	0.25696	2.38066	1168.73559	0.83334	6759040.0
756	2	1	12.5	2227.23989	0.51709	0.13074	0.22635	43.31241	0.0813	2.4657	1645.47668	0.83903	7623790.52441
757	2	1	13.5	2148.51208	0.5146	0.12612	0.22848	43.36961	0.10352	2.48887	1602.55	0.83951	8133760.0
758	2	1	14.5	1915.93148	0.50417	0.11247	0.2317	43.41011	0.13182	2.52397	1770.39885	0.83985	7400576.0
759	2	1	15.5	1046.37961	0.22886	0.06142	0.00744	15.1505	0.11538	0.08099	3.61641	0.42408	4420.379
760	2	1	16.5	399.95167	0.18348	0.02348	0.0	0.0	0.0	0.0	3.8013	0.14352	1757.48257
805	2	3	13.5	1023.47288	0.34589	0.06008	0.12581	31.15387	0.00023	1.37052	147.35164	0.70447	1114096.0
806	2	3	14.5	1319.44312	0.41861	0.07745	0.18116	37.12508	0.02428	1.97338	571.48696	0.77906	2666905.99381
807	2	3	15.5	954.45586	0.22003	0.05603	0.004	12.36338	0.08669	0.0436	3.23901	0.36792	3385.19725
808	2	3	16.5	373.74228	0.18194	0.02194	0.0	0.0	0.0	0.0	3.54473	0.14352	1503.13595
876	2	6	12.5	1235.81132	0.36967	0.07254	0.13713	32.80945	0.00487	1.49382	217.98977	0.7269	1515177.19356
877	2	6	13.5	1040.11038	0.33841	0.06105	0.11736	30.42312	0.00255	1.27842	128.30363	0.69413	1010992.0
897	2	7	9.5	933.23628	0.36598	0.05478	0.1512	34.08549	0.18742	1.64702	372.77746	0.74326	1645789.88958
898	2	7	10.5	1741.98869	0.45356	0.10225	0.19131	39.78755	0.24464	2.08395	760.64235	0.80689	4685504.0
899	2	7	11.5	2187.99723	0.49761	0.12844	0.20917	41.98665	0.27422	2.27859	1062.58565	0.82754	6713216.0
900	2	7	12.5	2275.16796	0.50675	0.13355	0.2132	42.12467	0.09232	2.3224	1331.49812	0.82877	7858816.0
901	2	7	13.5	1716.49023	0.44476	0.10076	0.184	38.24776	0.02275	2.00438	649.46806	0.79118	3906496.0
902	2	7	14.5	1086.94725	0.36134	0.0638	0.13753	32.4416	0.00328	1.49817	219.60645	0.72203	1394768.0
922	2	8	10.5	797.26674	0.30767	0.0468	0.10087	28.01753	0.00019	1.09877	96.34756	0.65823	691656.0
923	2	8	11.5	1283.74531	0.38379	0.07536	0.14843	33.9628	0.00398	1.61688	269.6902	0.74172	1861600.0
924	2	8	12.5	1620.21308	0.42206	0.09511	0.16695	36.44615	0.01158	1.81868	466.84597	0.77144	2941852.93419
925	2	8	13.5	1308.09589	0.3809	0.07679	0.14412	33.64354	0.00682	1.56989	256.51078	0.73768	1918880.0
926	2	8	14.5	895.64282	0.32762	0.05257	0.11505	29.73308	0.00021	1.25324	130.55125	0.68413	902160.0
928	2	8	16.5	336.05052	0.17973	0.01973	0.0	0.0	0.0	0.0	3.05863	0.14352	1091.20392
944	2	9	8.5	255.00509	0.17497	0.01497	0.0	0.0	0.0	0.0	4.11025	0.14352	827.24372
945	2	9	9.5	1069.47261	0.37753	0.06278	0.15475	35.18633	0.25263	1.68572	413.0762	0.75673	2193824.0
946	2	9	10.5	1939.59954	0.47062	0.11385	0.19676	40.67654	0.2419	2.14336	898.20542	0.81548	5693632.0
947	2	9	11.5	2414.52137	0.51805	0.14173	0.21632	43.12605	0.31139	2.35644	1308.60613	0.83746	8179584.0
948	2	9	12.5	2448.52987	0.52153	0.14373	0.21781	42.81902	0.09741	2.3726	1543.5331	0.83483	9096064.0
949	2	9	13.5	2349.29678	0.52292	0.1379	0.22502	43.37803	0.11364	2.45116	1781.77998	0.83958	8528263.35422
950	2	9	14.5	1935.73703	0.48944	0.11363	0.21582	41.92763	0.14874	2.35094	1439.18303	0.82701	6381665.52651
951	2	9	15.5	1108.98541	0.23123	0.0651	0.00613	14.5392	0.1126	0.06682	3.43635	0.41179	4257.82225
952	2	9	16.5	518.89219	0.19418	0.03046	0.00372	10.21592	0.05271	0.04052	4.21638	0.32487	2596.54507
968	2	10	8.5	242.53964	0.17424	0.01424	0.0	0.0	0.0	0.0	3.96563	0.14352	782.49372
969	2	10	9.5	1094.95804	0.38191	0.06427	0.15764	35.49959	0.24643	1.71722	459.03029	0.76046	2251104.0
970	2	10	10.5	1952.10488	0.47366	0.11459	0.19907	40.89162	0.23838	2.1685	982.66921	0.81751	5599068.79979
971	2	10	11.5	2375.20854	0.51082	0.13942	0.2114	42.58765	0.3022	2.30282	1196.45815	0.83283	7767168.0
972	2	10	12.5	2324.64038	0.5057	0.13646	0.20925	41.82788	0.09372	2.27939	1304.24891	0.82612	7629696.0
973	2	10	13.5	1957.76957	0.46924	0.11492	0.19431	39.71495	0.06032	2.11672	891.64236	0.80617	4955930.03351
974	2	10	14.5	1499.7406	0.42771	0.08803	0.17967	37.47834	0.064	1.95722	642.08927	0.78293	3227591.45305
975	2	10	15.5	853.58705	0.21129	0.05011	0.00118	7.4741	0.02494	0.01285	2.98609	0.27131	2507.70332
976	2	10	16.5	476.57135	0.18797	0.02797	0.0	0.0	0.0	0.0	3.70237	0.14352	1993.1449
992	2	11	8.5	282.49798	0.17658	0.01658	0.0	0.0	0.0	0.0	4.23207	0.14352	918.95149
993	2	11	9.5	1114.24463	0.3808	0.06541	0.15539	35.34385	0.24166	1.69274	447.02213	0.75861	2331296.0
994	2	11	10.5	1919.78026	0.46793	0.11269	0.19524	40.48135	0.23822	2.12675	924.48658	0.81362	5316299.16623
995	2	11	11.5	1645.53731	0.4198	0.09659	0.1632	36.17505	0.02883	1.77782	403.48148	0.76834	2990016.0
1016	2	12	8.5	216.24168	0.17269	0.01269	0.0	0.0	0.0	0.0	3.38179	0.14352	670.25631
1017	2	12	9.5	698.41229	0.29612	0.041	0.09512	27.0547	0.0002	1.03615	114.68059	0.64306	685928.0
1018	2	12	10.5	1126.48996	0.35772	0.06612	0.1316	31.98669	0.00206	1.43353	222.26064	0.71592	1540832.0
1019	2	12	11.5	1339.48121	0.38052	0.07863	0.14189	33.51088	0.00815	1.5457	253.26194	0.73599	1918880.0
1020	2	12	12.5	1310.28729	0.36115	0.07691	0.12423	31.81185	0.00778	1.35331	182.25911	0.71355	1621024.0
1021	2	12	13.5	1690.58996	0.42318	0.09924	0.16394	36.34683	0.02609	1.78587	449.84638	0.77031	3379520.0
1022	2	12	14.5	1751.68633	0.45199	0.10282	0.18916	38.94404	0.10193	2.06062	832.2463	0.79841	4329583.67194
1023	2	12	15.5	1210.73377	0.23779	0.07107	0.00672	15.16947	0.11382	0.07316	3.56371	0.42446	4838.1226
1024	2	12	16.5	611.58027	0.20199	0.0359	0.00609	12.6264	0.06299	0.06637	4.42201	0.37322	3210.67935
1040	2	13	8.5	313.32581	0.17839	0.01839	0.0	0.0	0.0	0.0	4.37686	0.14352	1027.86061
1041	2	13	9.5	1233.11128	0.38728	0.07238	0.15489	35.70596	0.24403	1.68727	460.57698	0.76289	2652064.0
1042	2	13	10.5	2061.91027	0.47249	0.12103	0.19145	40.42098	0.24556	2.08552	875.18037	0.81304	6071680.0
1043	2	13	11.5	2527.50178	0.52256	0.14836	0.2142	43.05748	0.30483	2.33329	1380.57969	0.83687	8355232.17339
1044	2	13	12.5	2604.80963	0.52647	0.1529	0.21357	43.28172	0.28501	2.32643	1538.14312	0.83877	9508480.0
1045	2	13	13.5	2517.91449	0.52484	0.1478	0.21703	43.02465	0.1718	2.3642	1600.4326	0.83659	9279360.0
1046	2	13	14.5	2193.86201	0.50639	0.12878	0.21761	42.72458	0.19355	2.37053	1648.3862	0.83402	7747656.4837
1047	2	13	15.5	1265.33067	0.24126	0.07427	0.00698	15.45896	0.11435	0.07606	3.60535	0.43026	5084.2476
1048	2	13	16.5	645.58193	0.2051	0.0379	0.0072	13.46934	0.0688	0.07847	4.47435	0.39023	3406.1226
1049	2	13	17.5	98.45392	0.16578	0.00578	0.0	0.0	0.0	0.0	3.23228	0.14352	369.05307
1096	2	15	16.5	406.24207	0.18385	0.02385	0.0	0.0	0.0	0.0	3.13893	0.14352	1333.01582
1118	2	16	14.5	872.40273	0.27468	0.05121	0.06347	24.46926	0.00017	0.69144	40.60625	0.60015	471128.0
1119	2	16	15.5	723.53019	0.20247	0.04247	0.0	0.0	0.0	0.0	2.81901	0.14352	1765.57104
1304	2	24	8.5	396.74493	0.18329	0.02329	0.0	0.0	0.0	0.0	3.92945	0.14352	1313.8334
1305	2	24	9.5	1239.9159	0.35808	0.07278	0.12529	32.63326	0.1897	1.36486	330.56806	0.72457	2136544.0
1306	2	24	10.5	1596.82513	0.38782	0.09373	0.13408	33.90525	0.19051	1.46061	321.86778	0.741	2617696.0
1307	2	24	11.5	1378.42728	0.24132	0.08091	0.00041	5.16477	0.00972	0.00447	2.44851	0.22835	2779.35612
1328	2	25	8.5	276.10899	0.17621	0.01621	0.0	0.0	0.0	0.0	3.42624	0.14352	893.97302
1329	2	25	9.5	693.30257	0.25356	0.0407	0.05287	22.5603	0.0002	0.5759	53.45525	0.56653	439624.0
1330	2	25	10.5	1130.47347	0.31392	0.06636	0.08756	27.82679	0.00822	0.95384	107.47865	0.65526	1062544.0
1331	2	25	11.5	1304.14043	0.23723	0.07655	0.00068	6.77625	0.0132	0.00739	2.46337	0.25807	2661.54954
1332	2	25	12.5	1382.79395	0.24157	0.08117	0.0004	5.12245	0.00982	0.0044	2.40713	0.22758	2915.05594
1333	2	25	13.5	1721.76456	0.26303	0.10107	0.00197	11.52399	0.06991	0.02142	2.47719	0.35103	3407.30594
1334	2	25	14.5	1773.44839	0.32543	0.1041	0.06133	26.77363	0.16527	0.66806	38.3293	0.63855	1850144.0
1335	2	25	15.5	1435.41232	0.25007	0.08426	0.00581	15.13515	0.12582	0.06331	3.42066	0.42377	5057.3905
1336	2	25	16.5	816.49092	0.21777	0.04793	0.00984	15.51401	0.08959	0.10724	4.55295	0.43136	4195.17935
1337	2	25	17.5	198.74246	0.17167	0.01167	0.0	0.0	0.0	0.0	3.74562	0.14352	838.79364
1352	2	26	8.5	405.51453	0.1838	0.0238	0.0	0.0	0.0	0.0	3.66416	0.14352	1274.31473
1353	2	26	9.5	1173.56746	0.34292	0.06889	0.11403	31.28356	0.17419	1.24214	269.26269	0.70627	1838688.0
1354	2	26	10.5	1952.4401	0.42542	0.11461	0.15081	36.28564	0.22821	1.64285	501.91969	0.76961	4043968.0
1355	2	26	11.5	2229.72886	0.30963	0.13089	0.01875	23.67736	0.7819	0.20423	2.58896	0.58639	3605.91479
1356	2	26	12.5	2331.7388	0.31846	0.13687	0.02158	26.86543	1.40291	0.23511	2.56185	0.64003	3743.19725
1357	2	26	13.5	2243.38068	0.31356	0.13169	0.02188	26.63841	1.26285	0.23831	2.64648	0.63637	3677.65505
1358	2	26	14.5	1994.99708	0.28829	0.11711	0.01119	19.54433	0.41543	0.12185	2.91416	0.51047	5149.92295
1359	2	26	15.5	1512.04649	0.2561	0.08876	0.00734	16.30588	0.15548	0.07996	3.63552	0.44717	5789.0601
1360	2	26	16.5	839.65192	0.21936	0.04929	0.01008	15.69078	0.08935	0.10977	4.53436	0.4349	4233.9976
1361	2	26	17.5	206.67536	0.17213	0.01213	0.0	0.0	0.0	0.0	3.83396	0.14352	883.18122
1376	2	27	8.5	492.06477	0.18888	0.02888	0.0	0.0	0.0	0.0	3.96542	0.14352	1613.42815
1377	2	27	9.5	1408.41871	0.37768	0.08267	0.135	34.00644	0.18127	1.47064	457.05873	0.74227	2812448.0
1378	2	27	10.5	2037.42638	0.40267	0.1196	0.12308	33.86383	0.25531	1.34072	238.39346	0.74047	4318912.0
1379	2	27	11.5	2323.04153	0.31648	0.13636	0.02011	24.92762	0.95146	0.21911	2.67199	0.60798	3702.92935
1380	2	27	12.5	2350.64231	0.31992	0.13798	0.02193	27.27422	1.5856	0.23894	2.5896	0.64656	3743.19725
1381	2	27	13.5	2268.61129	0.31539	0.13317	0.02222	27.28957	1.42827	0.24207	2.65951	0.64681	3653.69725
1382	2	27	14.5	2005.37738	0.29351	0.11772	0.01579	21.66173	0.56077	0.17204	2.92826	0.55018	5155.8547
1383	2	27	15.5	1531.28186	0.25738	0.08989	0.00749	16.43307	0.1582	0.08159	3.64168	0.4497	5803.8229
1384	2	27	16.5	855.93288	0.22008	0.05024	0.00984	15.65323	0.09017	0.10717	4.55078	0.43415	4330.879
1385	2	27	17.5	216.26999	0.1727	0.0127	0.0	0.0	0.0	0.0	3.8399	0.14352	927.17311
1400	2	28	8.5	389.66341	0.18287	0.02287	0.0	0.0	0.0	0.0	3.68966	0.14352	1307.11912
1408	2	28	16.5	533.86549	0.19134	0.03134	0.0	0.0	0.0	0.0	3.17519	0.14352	1709.63354
1409	2	28	17.5	191.31228	0.17123	0.01123	0.0	0.0	0.0	0.0	3.24009	0.14352	694.83903
1426	3	1	10.5	960.96297	0.21654	0.05641	0.00013	0.0849	0.00247	0.00143	2.60961	0.14476	2054.13842
1427	3	1	11.5	1281.76294	0.23566	0.07524	0.00042	5.06077	0.00821	0.00462	2.4646	0.22647	2660.09989
1428	3	1	12.5	1365.36764	0.24095	0.08015	0.0008	7.51915	0.01484	0.00876	2.48904	0.27217	2998.62419
1429	3	1	13.5	1302.95505	0.23691	0.07648	0.00042	5.10636	0.00868	0.00462	2.52408	0.22729	2903.19244
1430	3	1	14.5	1105.24632	0.22504	0.06488	0.00016	1.18986	0.00294	0.00174	2.64652	0.16141	2455.37219
1431	3	1	15.5	801.48032	0.20705	0.04705	0.0	0.0	0.0	0.0	2.89842	0.14352	1946.74552
1448	3	2	8.5	510.46576	0.18996	0.02996	0.0	0.0	0.0	0.0	4.39748	0.14352	1760.44845
1449	3	2	9.5	1284.91673	0.34474	0.07542	0.10932	31.07842	0.1623	1.19083	274.77148	0.70341	1976160.0
1450	3	2	10.5	1821.67937	0.27508	0.10693	0.00815	17.51325	0.23397	0.08874	2.99173	0.47107	4102.6469
1451	3	2	11.5	2231.83124	0.31022	0.13101	0.01922	23.94171	0.80146	0.20932	2.61927	0.59101	3583.53979
1452	3	2	12.5	2264.49341	0.31368	0.13293	0.02075	25.05941	0.94201	0.22604	2.56727	0.61022	3722.2719
1453	3	2	13.5	2045.38068	0.29941	0.12006	0.01935	23.3341	0.68118	0.21074	2.56339	0.58034	3714.75734
1454	3	2	14.5	1585.52138	0.25498	0.09307	0.00191	11.18483	0.09356	0.02085	2.69862	0.34422	3158.41479
1455	3	2	15.5	999.08568	0.2193	0.05865	0.00065	5.82839	0.0196	0.00709	2.95802	0.24044	2360.7496
1456	3	2	16.5	578.19888	0.19394	0.03394	0.0	0.0	0.0	0.0	3.21532	0.14352	1822.23337
1472	3	3	8.5	459.69212	0.18698	0.02698	0.0	0.0	0.0	0.0	4.07967	0.14352	1544.8535
1473	3	3	9.5	1299.46701	0.34827	0.07628	0.112	31.35378	0.15994	1.22	307.02248	0.70725	1973291.69212
1474	3	3	10.5	1897.06805	0.27982	0.11136	0.00846	17.8123	0.23996	0.09215	3.00008	0.47694	4251.8905
1475	3	3	11.5	2275.64728	0.31337	0.13358	0.01979	24.42169	0.85765	0.21553	2.63157	0.59933	3634.22155
1476	3	3	12.5	2322.23428	0.31829	0.13632	0.02197	27.11449	1.41757	0.23938	2.60526	0.64402	3831.2476
1477	3	3	13.5	2253.39595	0.31427	0.13227	0.022	26.48189	1.19088	0.23965	2.67284	0.63383	3743.19725
1478	3	3	14.5	1978.36519	0.29093	0.11613	0.0148	21.07897	0.49624	0.16118	2.8869	0.53941	4823.129
1479	3	3	15.5	1455.48164	0.25128	0.08544	0.00584	15.22116	0.13303	0.06365	3.42219	0.42549	5042.3969
1480	3	3	16.5	780.87291	0.21096	0.04584	0.00513	12.67596	0.0653	0.05583	3.85924	0.37422	3070.4976
1481	3	3	17.5	208.98384	0.17227	0.01227	0.0	0.0	0.0	0.0	3.36565	0.14352	787.32936
1504	3	4	16.5	498.18252	0.18924	0.02924	0.0	0.0	0.0	0.0	3.12818	0.14352	1532.8746
1520	3	5	8.5	491.39473	0.18884	0.02884	0.0	0.0	0.0	0.0	3.59418	0.14352	1542.61245
1521	3	5	9.5	1282.48381	0.24613	0.07528	0.01085	17.56974	0.15755	0.11822	3.67838	0.47218	3767.0219
1522	3	5	10.5	1925.83871	0.28127	0.11305	0.00822	17.74009	0.24136	0.08955	2.98862	0.47552	4304.0219
1523	3	5	11.5	2318.64488	0.31647	0.1361	0.02037	24.93159	0.91985	0.22185	2.64171	0.60805	3740.16479
1524	3	5	12.5	2365.2158	0.3211	0.13884	0.02226	27.45519	1.5851	0.24246	2.62078	0.64943	3859.55435
1525	3	5	13.5	2293.79003	0.31716	0.13465	0.02251	27.46878	1.43203	0.2452	2.69262	0.64964	3787.94725
1526	3	5	14.5	2020.07537	0.29886	0.11858	0.02028	23.83033	0.73848	0.22093	2.90781	0.58907	4890.254
1527	3	5	15.5	1493.07758	0.25374	0.08764	0.0061	15.47681	0.13607	0.06646	3.44589	0.43062	5154.2719
1528	3	5	16.5	807.99583	0.21173	0.04743	0.0043	12.10601	0.06253	0.04685	3.85599	0.36273	3161.44725
1529	3	5	17.5	230.36471	0.17352	0.01352	0.0	0.0	0.0	0.0	3.34216	0.14352	834.28712
1544	3	6	8.5	507.30306	0.18978	0.02978	0.0	0.0	0.0	0.0	3.60536	0.14352	1621.64977
1545	3	6	9.5	1285.79349	0.24502	0.07548	0.00954	17.00482	0.15578	0.10395	3.51437	0.46104	3588.0219
1546	3	6	10.5	1953.54934	0.28387	0.11467	0.0092	18.33232	0.27023	0.10021	2.99017	0.48709	4365.21515
1547	3	6	11.5	2326.56211	0.31702	0.13657	0.02045	24.92167	0.9072	0.22276	2.63081	0.60788	3857.97155
1548	3	6	12.5	2389.50674	0.32263	0.14026	0.02236	27.55639	1.58735	0.2436	2.63304	0.65102	3899.82225
1549	3	6	13.5	2299.87601	0.31748	0.135	0.02247	27.33179	1.38116	0.24482	2.69088	0.64748	3811.7719
1550	3	6	14.5	1999.61664	0.29725	0.11738	0.01987	23.53206	0.70444	0.2165	2.88144	0.58384	4727.69725
1551	3	6	15.5	1410.5254	0.24761	0.0828	0.00482	14.34245	0.12154	0.05245	3.24451	0.40783	4238.34655
1552	3	6	16.5	763.49597	0.20871	0.04482	0.00389	11.55707	0.05982	0.04241	3.79284	0.35169	2876.504
1553	3	6	17.5	222.38823	0.17305	0.01305	0.0	0.0	0.0	0.0	3.31883	0.14352	826.84802
1568	3	7	8.5	522.33633	0.19066	0.03066	0.0	0.0	0.0	0.0	3.61377	0.14352	1644.02477
1569	3	7	9.5	1321.15693	0.2481	0.07755	0.01055	17.5226	0.15399	0.11488	3.65091	0.47125	3878.8969
1570	3	7	10.5	1961.65825	0.28453	0.11515	0.00938	18.45845	0.28079	0.1022	2.9841	0.48954	4342.84015
1571	3	7	11.5	2331.78748	0.31747	0.13688	0.0206	24.99428	0.90878	0.22436	2.63587	0.60911	3853.48944
1572	3	7	12.5	2395.88898	0.32307	0.14064	0.02243	27.59062	1.58701	0.24438	2.63669	0.65156	3922.19725
1573	3	7	13.5	2315.09162	0.31855	0.1359	0.02266	27.61162	1.46758	0.24682	2.70283	0.65189	3855.07225
1574	3	7	14.5	2031.53522	0.30029	0.11925	0.02104	24.31427	0.78498	0.22921	2.90063	0.59748	4817.19725
1575	3	7	15.5	1507.23419	0.25439	0.08847	0.00591	15.37597	0.13352	0.06438	3.43247	0.4286	5131.8969
1576	3	7	16.5	827.55459	0.21244	0.04858	0.00386	11.76379	0.059	0.04207	3.84807	0.35585	3206.19725
1577	3	7	17.5	245.61358	0.17442	0.01442	0.0	0.0	0.0	0.0	3.36603	0.14352	911.4791
1592	3	8	8.5	536.75505	0.19151	0.03151	0.0	0.0	0.0	0.0	3.60917	0.14352	1688.77477
1593	3	8	9.5	1339.59509	0.24919	0.07863	0.01056	17.55799	0.15062	0.11502	3.64814	0.47195	3961.0155
1594	3	8	10.5	1998.08635	0.28688	0.11729	0.00959	18.61284	0.27994	0.1045	3.02488	0.49254	4526.32225
1595	3	8	11.5	2353.48632	0.31893	0.13815	0.02078	25.1751	0.93062	0.22633	2.64073	0.61217	3898.23944
1596	3	8	12.5	2425.00325	0.32492	0.14235	0.02257	27.72109	1.58837	0.24588	2.65235	0.65361	4054.9976
1597	3	8	13.5	2341.23599	0.32029	0.13743	0.02286	27.86086	1.56854	0.24903	2.71976	0.6558	3878.8969
1598	3	8	14.5	2054.99307	0.30211	0.12063	0.02148	24.63592	0.81418	0.234	2.92169	0.60301	4890.254
1599	3	8	15.5	1526.7945	0.25587	0.08962	0.00624	15.66506	0.14531	0.068	3.44332	0.43439	5176.6469
1600	3	8	16.5	843.81371	0.21435	0.04953	0.00482	12.68482	0.06536	0.05254	3.8863	0.3744	3250.94725
1601	3	8	17.5	253.58556	0.17489	0.01489	0.0	0.0	0.0	0.0	3.50221	0.14352	955.86668
1616	3	9	8.5	552.89147	0.19245	0.03245	0.0	0.0	0.0	0.0	3.61065	0.14352	1755.89977
1617	3	9	9.5	1333.70665	0.24757	0.07829	0.00928	16.97032	0.14729	0.10109	3.48357	0.46036	3738.71515
1618	3	9	10.5	1998.53134	0.28659	0.11731	0.00928	18.46162	0.2774	0.10109	2.97928	0.48961	4409.96515
1619	3	9	11.5	2363.0835	0.31966	0.13871	0.02094	25.33059	0.95106	0.22816	2.64322	0.61479	3935.60804
1620	3	9	12.5	2528.03923	0.40016	0.1484	0.09176	36.57189	1.5887	0.99957	132.22459	0.77287	4570944.0
1621	3	9	13.5	2376.06551	0.33312	0.13948	0.03365	29.77585	1.55976	0.36651	10.98461	0.68476	1440592.0
1622	3	9	14.5	2054.56096	0.30217	0.1206	0.02157	24.67156	0.81394	0.23495	2.91467	0.60362	4817.19725
1623	3	9	15.5	1520.89214	0.25501	0.08928	0.00574	15.29321	0.13561	0.06248	3.43014	0.42694	5131.8969
1624	3	9	16.5	850.81471	0.21562	0.04994	0.00568	13.35742	0.06943	0.06186	4.04362	0.38797	3480.629
1625	3	9	17.5	259.52718	0.17523	0.01523	0.0	0.0	0.0	0.0	3.46492	0.14352	967.4166
1640	3	10	8.5	569.3055	0.19342	0.03342	0.0	0.0	0.0	0.0	3.61495	0.14352	1790.1871
1641	3	10	9.5	1349.44068	0.24835	0.07921	0.00914	16.93408	0.14494	0.09956	3.47041	0.45964	3722.2719
1642	3	10	10.5	2017.3373	0.28773	0.11842	0.00931	18.50638	0.2776	0.10142	2.98091	0.49048	4460.6469
1643	3	10	11.5	2546.32123	0.42994	0.14947	0.12047	37.54588	0.97809	1.31228	293.36053	0.78367	5281216.0
1644	3	10	12.5	2901.63285	0.48933	0.17033	0.15901	43.64771	1.58935	1.73211	896.18444	0.84182	7671098.13942
1645	3	10	13.5	2751.81189	0.48	0.16153	0.15846	43.54442	1.57262	1.7262	823.57815	0.84097	7812992.0
1646	3	10	14.5	2106.65847	0.3139	0.12366	0.03024	26.49995	0.83377	0.32937	9.64851	0.63412	1142736.0
1647	3	10	15.5	1555.67473	0.2573	0.09132	0.00598	15.53696	0.1396	0.06514	3.45365	0.43182	5287.07225
1648	3	10	16.5	872.8557	0.21573	0.05124	0.0045	12.51321	0.06179	0.049	3.89125	0.37094	3340.44725
1649	3	10	17.5	274.05704	0.17609	0.01609	0.0	0.0	0.0	0.0	3.41465	0.14352	1006.93526
1664	3	11	8.5	583.02209	0.19422	0.03422	0.0	0.0	0.0	0.0	3.59614	0.14352	1846.1246
1665	3	11	9.5	1371.49428	0.24952	0.08051	0.00901	16.9226	0.14379	0.09819	3.46117	0.45942	3783.46515
1666	3	11	10.5	2047.64235	0.29988	0.1202	0.01968	21.64714	0.27586	0.21442	10.26726	0.54991	1005264.0
1667	3	11	11.5	2720.92893	0.4688	0.15972	0.14908	40.75341	1.01933	1.62397	659.15906	0.81621	6190709.03236
1668	3	11	12.5	2912.17056	0.49127	0.17094	0.16032	43.82873	1.58435	1.74646	962.59889	0.84331	8063408.02633
1669	3	11	13.5	2787.86118	0.48322	0.16365	0.15957	43.76235	1.56905	1.73825	881.28383	0.84277	7767168.0
1670	3	11	14.5	2359.92238	0.44171	0.13853	0.14319	39.18565	0.83675	1.55975	603.60579	0.80087	5980032.0
1671	3	11	15.5	1569.65366	0.25837	0.09214	0.00623	15.75753	0.15042	0.0679	3.46604	0.43624	5310.8969
1672	3	11	16.5	888.14101	0.21725	0.05213	0.00512	13.068	0.06436	0.05577	3.91492	0.38213	3385.19725
1673	3	11	17.5	282.22131	0.17657	0.01657	0.0	0.0	0.0	0.0	3.48032	0.14352	1050.20232
1688	3	12	8.5	623.08652	0.19695	0.03658	0.00037	2.43058	0.00218	0.00408	3.64821	0.18119	2079.54587
1689	3	12	9.5	1400.04422	0.25199	0.08218	0.0098	17.33792	0.1399	0.10679	3.57865	0.46762	4050.5155
1690	3	12	10.5	2246.6617	0.41967	0.13188	0.12779	34.77297	0.27466	1.39201	463.04319	0.75174	4525120.0
1691	3	12	11.5	2735.09664	0.46887	0.16055	0.14832	41.4489	1.16924	1.61567	666.67952	0.82268	6484096.0
1692	3	12	12.5	2879.85835	0.48134	0.16905	0.15229	42.9522	1.56652	1.65891	827.17371	0.83598	7675520.0
1693	3	12	13.5	2747.45614	0.47687	0.16128	0.15559	43.01535	1.4297	1.69492	848.08773	0.83651	7037021.55983
1694	3	12	14.5	2269.01318	0.43572	0.13319	0.14253	38.84529	0.80367	1.55258	634.59397	0.7974	5097920.0
1695	3	12	15.5	1424.58508	0.24869	0.08362	0.00506	14.57864	0.1211	0.05514	3.30166	0.41258	4253.34015
1696	3	12	16.5	866.98055	0.2157	0.05089	0.00481	12.75972	0.0633	0.05238	3.95103	0.37591	3338.9976
1697	3	12	17.5	284.91214	0.17672	0.01672	0.0	0.0	0.0	0.0	3.53324	0.14352	1072.57732
1712	3	13	8.5	648.72631	0.2006	0.03808	0.00252	9.37367	0.01755	0.02745	4.01716	0.3082	2156.40872
1713	3	13	9.5	1425.69488	0.2534	0.08369	0.00971	17.34307	0.13666	0.10575	3.58699	0.46772	4125.0219
1714	3	13	10.5	2278.83885	0.42044	0.13377	0.12667	35.21726	0.39344	1.37989	465.97932	0.7571	4616768.0
1715	3	13	11.5	2749.48258	0.46461	0.16139	0.14321	41.50123	1.26639	1.56003	612.54277	0.82315	6621568.0
1716	3	13	12.5	2889.086	0.47829	0.16959	0.1487	42.66528	1.55048	1.61987	792.86574	0.83351	7629696.0
1717	3	13	13.5	2816.79902	0.48189	0.16535	0.15654	43.48424	1.53564	1.70524	908.1914	0.84047	7441554.64036
1718	3	13	14.5	2416.12203	0.45047	0.14183	0.14865	39.90797	0.85421	1.61924	763.17483	0.80807	6163328.0
1719	3	13	15.5	1586.94638	0.25947	0.09315	0.00632	15.86322	0.15704	0.0688	3.47407	0.43835	5331.82225
1720	3	13	16.5	887.15459	0.21691	0.05208	0.00484	12.849	0.0632	0.05267	3.91841	0.37771	3340.44725
1721	3	13	17.5	264.53562	0.17553	0.01553	0.0	0.0	0.0	0.0	3.41473	0.14352	982.71491
1856	3	19	8.5	655.38558	0.19925	0.03847	0.00078	5.14732	0.00379	0.00847	3.62341	0.22803	2169.04587
1857	3	19	9.5	1465.63985	0.32134	0.08603	0.0753	27.93337	0.12272	0.82031	217.53012	0.65692	1941792.0
1858	3	19	10.5	1798.40653	0.35178	0.10557	0.08621	29.60274	0.14982	0.93912	227.30784	0.68221	2260488.78555
1859	3	19	11.5	1634.85768	0.31383	0.09597	0.05787	25.90317	0.03437	0.63037	92.86769	0.62434	1371856.0
1862	3	19	14.5	1151.37753	0.2279	0.06759	0.00032	3.70574	0.00538	0.00345	2.81765	0.20261	2730.12402
1863	3	19	15.5	944.09768	0.21584	0.05542	0.00042	4.12725	0.00413	0.00463	3.04731	0.20992	2278.61324
1864	3	19	16.5	711.52697	0.20193	0.04177	0.00016	0.0	0.00094	0.00179	3.42432	0.14352	2257.75447
1865	3	19	17.5	308.39177	0.1781	0.0181	0.0	0.0	0.0	0.0	3.47176	0.14352	1134.8334
1880	3	20	8.5	517.61399	0.19038	0.03038	0.0	0.0	0.0	0.0	3.19801	0.14352	1588.8121
1881	3	20	9.5	869.53351	0.222	0.05104	0.01096	15.67218	0.00252	0.11938	17.47004	0.43453	282820.0
1882	3	20	10.5	1771.53832	0.3341	0.10399	0.07011	27.82921	0.13905	0.76368	151.05847	0.6553	1930336.0
1883	3	20	11.5	2539.2697	0.42211	0.14906	0.11305	36.5334	0.85136	1.23151	405.5124	0.77243	4639680.0
1884	3	20	12.5	2890.57903	0.4529	0.16968	0.12323	40.20461	1.44052	1.34234	585.05758	0.81096	6484096.0
1885	3	20	13.5	2829.16098	0.46019	0.16607	0.13412	41.51199	1.42596	1.46102	718.03436	0.82325	6942336.0
1886	3	20	14.5	2171.74346	0.31053	0.12748	0.02305	25.5241	0.84458	0.25105	3.11434	0.61803	4817.19725
1887	3	20	15.5	1618.56973	0.26131	0.09501	0.0063	15.96157	0.17486	0.06866	3.53485	0.44031	5109.5219
1888	3	20	16.5	860.24201	0.21434	0.0505	0.00385	11.84983	0.04663	0.04192	3.73753	0.35758	2819.75734
1904	3	21	8.5	714.91276	0.20717	0.04197	0.00521	12.46911	0.04239	0.05674	3.78979	0.37005	2370.42087
1905	3	21	9.5	1340.23701	0.30542	0.07867	0.06675	26.65015	0.10475	0.7271	188.16173	0.63656	1609568.0
1906	3	21	10.5	2116.782	0.38054	0.12426	0.09628	32.42326	0.4562	1.04883	308.98102	0.72179	3356608.0
1907	3	21	11.5	2689.32713	0.43464	0.15786	0.11677	38.21204	1.07108	1.27204	464.98389	0.7908	5349952.0
1908	3	21	12.5	2927.08175	0.45918	0.17182	0.12736	40.80923	1.42735	1.38739	682.5536	0.81673	6850688.0
1909	3	21	13.5	2824.16284	0.45706	0.16578	0.13128	41.22749	1.41118	1.43008	703.60491	0.82064	6275102.09401
1910	3	21	14.5	2153.264	0.30953	0.1264	0.02313	25.48334	0.82996	0.25196	3.13561	0.61735	4705.32225
1911	3	21	15.5	1557.46515	0.25682	0.09142	0.00539	15.13112	0.12991	0.05877	3.488	0.42369	4662.0219
1912	3	21	16.5	934.99286	0.21963	0.05488	0.00475	12.91253	0.05307	0.05169	3.8856	0.37899	3206.19725
1913	3	21	17.5	337.45571	0.17981	0.01981	0.0	0.0	0.0	0.0	3.51531	0.14352	1223.21287
1960	3	23	16.5	748.07156	0.20434	0.04391	0.00043	3.46449	0.00474	0.00468	3.53273	0.19848	2361.40784
1961	3	23	17.5	365.79399	0.18147	0.02147	0.0	0.0	0.0	0.0	3.52877	0.14352	1300.40485
1977	3	24	9.5	921.17169	0.23191	0.05407	0.01783	17.87283	0.00304	0.19428	33.92143	0.47812	436760.0
1978	3	24	10.5	1175.09391	0.25201	0.06898	0.02303	19.76764	0.00622	0.25092	34.7431	0.51473	582824.0
2008	3	25	16.5	771.21625	0.20608	0.04527	0.00081	5.78284	0.00573	0.00881	3.54969	0.2396	2415.10429
2009	3	25	17.5	388.93923	0.18283	0.02283	0.0	0.0	0.0	0.0	3.5498	0.14352	1352.42495
2025	3	26	9.5	941.49137	0.22749	0.05527	0.01223	16.34729	0.00103	0.13319	24.72578	0.448	373752.0
2026	3	26	10.5	1197.33382	0.24079	0.07028	0.01051	16.51271	0.01164	0.11446	15.75718	0.45129	363012.0
2029	3	26	13.5	1550.13977	0.26893	0.09099	0.01794	19.57591	0.02972	0.19541	25.06676	0.51108	605736.0
2030	3	26	14.5	1613.80476	0.25665	0.09473	0.00192	11.22984	0.06479	0.02093	3.0228	0.34512	3628.02349
2031	3	26	15.5	1416.40337	0.24622	0.08314	0.00308	12.59713	0.08211	0.03353	3.35244	0.37263	3494.03979
2032	3	26	16.5	810.51426	0.20811	0.04758	0.00053	4.47639	0.00699	0.00582	3.5307	0.21605	2516.51662
2048	3	27	8.5	512.32128	0.19007	0.03007	0.0	0.0	0.0	0.0	3.08771	0.14352	1556.69925
2074	3	28	10.5	1208.98955	0.24771	0.07097	0.01674	18.45892	0.01046	0.18234	27.92397	0.48955	519816.0
2075	3	28	11.5	1642.77432	0.27675	0.09643	0.02031	20.28832	0.02768	0.22129	30.58581	0.5246	741776.0
2076	3	28	12.5	2028.27544	0.33717	0.11906	0.05811	29.5755	0.67201	0.63305	125.6563	0.68181	1819768.58382
2077	3	28	13.5	1677.55584	0.27648	0.09847	0.01801	19.88278	0.04452	0.19614	26.54237	0.51692	680200.0
2078	3	28	14.5	1221.7128	0.23253	0.07171	0.00082	7.22723	0.01223	0.00889	2.96791	0.2666	2995.59174
2097	3	29	9.5	970.82143	0.22738	0.05699	0.01039	15.79763	0.0029	0.11322	23.44707	0.43704	368024.0
2098	3	29	10.5	1523.22387	0.27116	0.08941	0.02175	20.43696	0.04909	0.2369	37.41073	0.5274	758960.0
2099	3	29	11.5	2087.18267	0.3471	0.12252	0.06458	30.63666	0.73478	0.70351	149.12957	0.69718	2052081.82562
2100	3	29	12.5	2402.08311	0.37717	0.141	0.07617	32.47054	0.74251	0.82972	243.8859	0.72242	3029480.92692
2101	3	29	13.5	2505.56225	0.39242	0.14708	0.08535	33.90208	0.81335	0.92972	294.74742	0.74096	3791936.0
2102	3	29	14.5	2163.74048	0.31129	0.12701	0.02428	25.89472	0.81866	0.26447	3.2852	0.6242	4430.8905
2103	3	29	15.5	1719.91704	0.27695	0.10096	0.01599	20.71139	0.35456	0.17422	3.75725	0.53255	5287.07225
2104	3	29	16.5	1049.97708	0.22554	0.06163	0.0039	12.52076	0.05	0.04253	3.94168	0.37109	3319.5219
2105	3	29	17.5	439.53977	0.1858	0.0258	0.0	0.0	0.0	0.0	3.70633	0.14352	1610.46227
2119	3	30	7.5	281.84165	0.17654	0.01654	0.0	0.0	0.0	0.0	3.22596	0.14352	973.73517
2120	3	30	8.5	810.95851	0.2106	0.0476	0.00299	10.69481	0.0243	0.03261	3.54452	0.33442	2594.10429
2121	3	30	9.5	1421.76031	0.28514	0.08346	0.04169	23.73341	0.09488	0.4541	121.64389	0.58737	1320304.0
2122	3	30	10.5	1663.79365	0.29642	0.09766	0.03875	23.7483	0.10623	0.42215	83.80947	0.58763	1308848.0
2123	3	30	11.5	1559.39367	0.26519	0.09154	0.01365	18.4635	0.03761	0.14873	20.67819	0.48964	559912.0
2191	4	2	7.5	356.75945	0.18094	0.02094	0.0	0.0	0.0	0.0	3.3642	0.14352	1197.15605
2192	4	2	8.5	950.25051	0.22192	0.05578	0.00614	13.97922	0.04805	0.0669	3.92548	0.40051	2997.30769
2193	4	2	9.5	1674.49675	0.30985	0.09829	0.05155	25.67071	0.12787	0.56159	193.72631	0.62048	2296928.0
2194	4	2	10.5	2271.71596	0.37634	0.13335	0.08299	33.66198	0.82036	0.904	357.23691	0.73792	3654464.0
2195	4	2	11.5	2537.79704	0.39585	0.14897	0.08688	34.82047	0.93761	0.94637	363.55256	0.75232	4135616.0
2196	4	2	12.5	2506.23639	0.3845	0.14712	0.07738	33.12858	0.80891	0.84293	301.65438	0.73106	3700288.0
2197	4	2	13.5	2323.37349	0.37406	0.13638	0.07768	32.70767	0.76031	0.84618	283.32004	0.72556	3139882.10278
2198	4	2	14.5	1797.1722	0.2875	0.10549	0.022	23.61403	0.61362	0.23967	3.22218	0.58528	3887.69244
2199	4	2	15.5	1349.35746	0.24215	0.07921	0.00295	12.27316	0.06974	0.03211	3.44253	0.3661	3308.97489
2200	4	2	16.5	1062.15488	0.22677	0.06235	0.00442	13.03066	0.05129	0.0482	4.07814	0.38137	3409.0219
2201	4	2	17.5	511.8936	0.19251	0.03005	0.00246	8.51771	0.00677	0.02681	4.23186	0.29144	2318.30722
2215	4	3	7.5	383.49146	0.18251	0.02251	0.0	0.0	0.0	0.0	3.53022	0.14352	1422.5824
2216	4	3	8.5	1018.02479	0.22626	0.05976	0.0065	14.41089	0.04833	0.07079	4.07349	0.40921	3341.8969
2217	4	3	9.5	1819.13153	0.30624	0.10678	0.03946	24.94879	0.27223	0.42987	107.74769	0.60834	2400032.0
2218	4	3	10.5	2557.74674	0.405	0.15014	0.09486	37.40974	1.13605	1.03329	526.8447	0.78218	4739874.19233
2219	4	3	11.5	2951.42723	0.43272	0.17325	0.09947	39.14776	1.30224	1.08355	540.09886	0.80049	6163328.0
2220	4	3	12.5	3070.32179	0.44625	0.18023	0.10602	39.46073	1.26364	1.15487	722.73086	0.80364	6706502.40403
2221	4	3	13.5	2945.20685	0.43661	0.17288	0.10373	39.11444	1.24719	1.12997	625.03101	0.80015	6392448.0
2222	4	3	14.5	2333.08651	0.32362	0.13695	0.02667	29.45143	1.19162	0.29053	3.61122	0.67998	5202.05435
2223	4	3	15.5	1819.56198	0.29351	0.10681	0.0267	26.32992	0.78624	0.29089	3.9856	0.63135	5744.3101
2224	4	3	16.5	1175.24837	0.23592	0.06899	0.00693	15.1376	0.06891	0.07553	4.54622	0.42382	4480.1226
2225	4	3	17.5	523.24434	0.19434	0.03071	0.00363	10.01291	0.00885	0.03954	4.34164	0.32084	2441.36972
2239	4	4	7.5	386.00496	0.18266	0.02266	0.0	0.0	0.0	0.0	3.48351	0.14352	1329.92311
2240	4	4	8.5	998.32072	0.22514	0.0586	0.00654	14.37097	0.04741	0.07123	4.05006	0.4084	3230.0219
2241	4	4	9.5	1754.34085	0.27341	0.10298	0.01043	18.42625	0.20225	0.11366	3.83764	0.48892	4863.3969
2242	4	4	10.5	2468.75304	0.3892	0.14492	0.08428	34.96613	0.95254	0.91808	402.56778	0.75408	4296000.0
2243	4	4	11.5	2869.8668	0.42403	0.16846	0.09557	38.4833	1.28919	1.04106	508.41631	0.79365	5647808.0
2244	4	4	12.5	2982.1638	0.43173	0.17505	0.09667	38.30553	1.25184	1.0531	580.31461	0.79179	6209152.0
2245	4	4	13.5	2864.04638	0.4261	0.16812	0.09798	38.32063	1.23542	1.06733	556.3056	0.79195	5888384.0
2246	4	4	14.5	2296.58407	0.32141	0.13481	0.02661	29.23246	1.17954	0.28982	3.58151	0.67672	5017.1226
2247	4	4	15.5	1782.04039	0.29096	0.10461	0.02635	25.969	0.76209	0.28708	3.9152	0.62542	5421.32225
2248	4	4	16.5	1142.50748	0.23259	0.06707	0.00552	14.1389	0.0622	0.06018	4.30645	0.40373	3965.4976
2249	4	4	17.5	518.81665	0.19253	0.03045	0.00208	7.94188	0.00518	0.02265	4.1361	0.28028	2164.6481
2263	4	5	7.5	407.81741	0.18394	0.02394	0.0	0.0	0.0	0.0	3.55552	0.14352	1488.98257
2264	4	5	8.5	1039.25351	0.22735	0.061	0.00635	14.36977	0.04654	0.06912	4.09044	0.40838	3362.82225
2265	4	5	9.5	1771.62977	0.27903	0.10399	0.01504	20.36142	0.28748	0.16381	3.93086	0.52598	5018.57225
2266	4	5	10.5	2475.13453	0.38974	0.14529	0.08445	35.09028	0.96118	0.91998	423.42414	0.75558	4296000.0
2267	4	5	11.5	2859.82676	0.42093	0.16787	0.09306	38.18394	1.27508	1.01369	495.27796	0.79051	5601984.0
2268	4	5	12.5	2974.87927	0.43112	0.17463	0.09649	38.286	1.24091	1.0511	607.50789	0.79158	5912335.10756
2269	4	5	13.5	2860.69307	0.42437	0.16792	0.09644	38.1541	1.22385	1.05057	558.7158	0.79019	5739456.0
2270	4	5	14.5	2291.30237	0.32121	0.1345	0.02671	29.22326	1.16862	0.29096	3.60088	0.67659	4957.379
2271	4	5	15.5	1783.81723	0.29137	0.10471	0.02666	26.12772	0.76856	0.29039	3.93525	0.62804	5354.19725
2272	4	5	16.5	1170.86237	0.23539	0.06873	0.00666	14.97203	0.07026	0.07257	4.48687	0.42049	4233.9976
2273	4	5	17.5	530.65898	0.19404	0.03115	0.00289	9.21752	0.0073	0.03152	4.29072	0.30513	2430.18222
2274	4	5	18.5	109.21374	0.16641	0.00641	0.0	0.0	0.0	0.0	3.16778	0.14352	302.62729
2287	4	6	7.5	406.07559	0.18384	0.02384	0.0	0.0	0.0	0.0	3.50411	0.14352	1355.4574
2288	4	6	8.5	973.99163	0.22206	0.05717	0.00488	13.14092	0.04104	0.0532	3.88479	0.3836	3028.51374
2289	4	6	9.5	1592.40811	0.26029	0.09347	0.00681	16.14799	0.12231	0.07422	3.67524	0.44403	4102.6469
2290	4	6	10.5	2198.56642	0.35999	0.12906	0.07094	32.36928	0.81296	0.77274	290.78168	0.72107	3173312.0
2291	4	6	11.5	2476.76074	0.38392	0.14539	0.07854	33.64219	0.87434	0.85551	340.25466	0.73766	3652459.16161
2292	4	6	12.5	2515.81022	0.37946	0.14768	0.07178	32.99476	0.87293	0.78194	299.3874	0.72932	3746112.0
2293	4	6	13.5	2422.04128	0.37583	0.14217	0.07366	32.85019	0.82529	0.80236	295.0314	0.72743	3608640.0
2294	4	6	14.5	1994.13789	0.30208	0.11706	0.02502	25.86111	0.79292	0.27256	3.40989	0.62364	4053.28164
2295	4	6	15.5	1559.85075	0.25666	0.09156	0.0051	14.92246	0.13078	0.05552	3.71651	0.4195	4029.59015
2296	4	6	16.5	1026.18035	0.22339	0.06024	0.00315	11.62214	0.03871	0.03432	3.98543	0.353	3179.20699
2297	4	6	17.5	517.8842	0.1922	0.0304	0.0018	7.41608	0.00468	0.0196	4.06558	0.2702	2094.55722
2311	4	7	7.5	426.5376	0.18504	0.02504	0.0	0.0	0.0	0.0	3.55802	0.14352	1489.7074
2312	4	7	8.5	1018.10493	0.22568	0.05976	0.00592	14.01784	0.04266	0.06444	4.07164	0.40129	3267.3905
2313	4	7	9.5	1697.52014	0.2682	0.09964	0.00856	17.40118	0.16961	0.09322	3.81941	0.46886	4527.7719
2314	4	7	10.5	2379.46239	0.37489	0.13967	0.07522	33.37917	0.85239	0.81939	347.78055	0.7343	3791936.0
2315	4	7	11.5	2796.63924	0.40856	0.16416	0.0844	36.96122	1.24375	0.9194	420.2576	0.77724	4891712.0
2316	4	7	12.5	2977.7421	0.42814	0.17479	0.09335	38.0471	1.22006	1.01689	608.47442	0.78906	5886603.74023
2317	4	7	13.5	2848.67527	0.4195	0.16722	0.09229	37.7357	1.20179	1.00529	543.72362	0.78572	5533248.0
2318	4	7	14.5	2298.34131	0.32191	0.13491	0.027	29.29757	1.14919	0.29411	3.65243	0.67769	4933.55435
2319	4	7	15.5	1790.22736	0.29218	0.10509	0.02709	26.41461	0.7813	0.29514	3.97575	0.63273	5307.9976
2320	4	7	16.5	1165.8305	0.23451	0.06843	0.00608	14.58216	0.06599	0.06621	4.45793	0.41265	4056.44725
2321	4	7	17.5	539.50594	0.19439	0.03167	0.00272	9.04039	0.00741	0.02962	4.25612	0.30165	2408.53205
2322	4	7	18.5	116.70939	0.16685	0.00685	0.0	0.0	0.0	0.0	3.19466	0.14352	318.10068
2335	4	8	7.5	439.4201	0.18579	0.02579	0.0	0.0	0.0	0.0	3.60204	0.14352	1568.0199
2336	4	8	8.5	1048.21327	0.2273	0.06153	0.00577	14.00623	0.04226	0.06282	4.1256	0.40105	3429.94725
2337	4	8	9.5	1781.40352	0.28709	0.10457	0.02252	23.46344	0.52053	0.24535	3.89288	0.58263	4839.57225
2338	4	8	10.5	2479.24538	0.38382	0.14553	0.07829	35.13491	1.03517	0.85285	400.05484	0.75612	4227264.0
2339	4	8	11.5	2892.48805	0.42189	0.16979	0.0921	38.16967	1.2391	1.0033	556.6788	0.79036	5443718.96321
2340	4	8	12.5	3000.84841	0.42875	0.17615	0.0926	38.09472	1.2103	1.00876	622.01861	0.78956	5990100.68097
2341	4	8	13.5	2937.22729	0.42551	0.17242	0.0931	38.16069	1.19372	1.01414	582.125	0.79026	6117504.0
2342	4	8	14.5	2367.09363	0.3265	0.13895	0.02755	29.81784	1.14259	0.30015	3.79223	0.68537	5222.9797
2343	4	8	15.5	1844.5749	0.29629	0.10828	0.02801	26.98843	0.79454	0.30514	4.2468	0.642	5845.6736
2344	4	8	16.5	1212.49792	0.23822	0.07117	0.00705	15.31294	0.07549	0.07677	4.64669	0.42733	4345.8726
2345	4	8	17.5	572.63259	0.19658	0.03361	0.00296	9.53599	0.00838	0.03227	4.24915	0.3114	2441.36972
2346	4	8	18.5	129.67547	0.16761	0.00761	0.0	0.0	0.0	0.0	3.24742	0.14352	349.83733
2359	4	9	7.5	467.76217	0.18746	0.02746	0.0	0.0	0.0	0.0	3.59613	0.14352	1624.68222
2360	4	9	8.5	1094.84705	0.22999	0.06427	0.00572	14.1039	0.04248	0.0623	4.15248	0.40302	3543.2719
2361	4	9	9.5	1845.64747	0.2943	0.10834	0.02596	25.6958	0.72169	0.28276	3.8989	0.6209	4996.19725
2362	4	9	10.5	2558.59822	0.38462	0.15019	0.07443	35.39983	1.11274	0.81081	365.06803	0.75928	4273088.0
2363	4	9	11.5	2973.396	0.42597	0.17454	0.09143	38.47681	1.22806	0.99598	570.93137	0.79358	6025856.0
2364	4	9	12.5	3088.63081	0.43168	0.1813	0.09038	38.13344	1.20121	0.98456	605.86292	0.78997	6438272.0
2365	4	9	13.5	2977.86636	0.43176	0.1748	0.09696	38.69284	1.18576	1.05619	684.75728	0.79583	6204601.52834
2366	4	9	14.5	2377.97796	0.32735	0.13959	0.02777	29.92867	1.13348	0.30246	3.83855	0.68699	5245.3547
2367	4	9	15.5	1872.60384	0.29765	0.10992	0.02773	26.84511	0.78948	0.30204	4.0431	0.6397	5510.82225
2368	4	9	16.5	1216.46206	0.23727	0.07141	0.00586	14.58612	0.0724	0.06385	4.41707	0.41273	4034.07225
2369	4	9	17.5	573.95483	0.19561	0.03369	0.00192	7.95452	0.00512	0.02089	4.09252	0.28053	2270.59135
2392	4	10	16.5	763.42823	0.20486	0.04481	5e-05	0.0	0.00028	0.0005	3.55138	0.14352	2312.17574
2393	4	10	17.5	460.24597	0.18702	0.02702	0.0	0.0	0.0	0.0	3.63206	0.14352	1398.62451
2407	4	11	7.5	343.88105	0.18019	0.02019	0.0	0.0	0.0	0.0	3.28118	0.14352	1004.69421
2408	4	11	8.5	804.7582	0.20746	0.04724	0.00022	1.32112	0.00151	0.00238	3.50312	0.16345	2356.20092
2409	4	11	9.5	1377.99094	0.24537	0.08089	0.00448	13.9743	0.08419	0.04885	3.44017	0.40041	3376.09989
2410	4	11	10.5	2107.41433	0.33775	0.12371	0.05404	30.38462	0.80346	0.58872	186.52872	0.69358	2400032.0
2411	4	11	11.5	2669.71745	0.39031	0.15671	0.0736	35.1883	1.14405	0.80173	358.05508	0.75676	3991725.43186
2412	4	11	12.5	2956.42945	0.41082	0.17354	0.07728	36.25787	1.18055	0.84184	439.46057	0.76929	5304128.0
2413	4	11	13.5	2832.65306	0.41323	0.16628	0.08695	37.22628	1.16288	0.9472	558.38823	0.78017	5303096.52663
2414	4	11	14.5	2241.52841	0.31832	0.13158	0.02674	27.42266	0.89418	0.29133	3.63118	0.64891	4436.82225
2415	4	11	15.5	1728.4323	0.28858	0.10146	0.02712	26.0737	0.74587	0.29544	3.92869	0.62715	4639.6469
2416	4	11	16.5	1148.75965	0.23101	0.06743	0.00358	12.44983	0.04391	0.03899	4.10793	0.36966	3426.78164
2417	4	11	17.5	564.48757	0.19631	0.03314	0.00317	9.74149	0.00849	0.03453	4.32847	0.31546	2486.11972
2418	4	11	18.5	146.1651	0.16858	0.00858	0.0	0.0	0.0	0.0	3.22288	0.14352	408.37388
2431	4	12	7.5	489.52625	0.18874	0.02874	0.0	0.0	0.0	0.0	3.68522	0.14352	1780.5824
2432	4	12	8.5	1108.81875	0.23066	0.06509	0.00557	14.03284	0.04049	0.06073	4.22374	0.40159	3610.3969
2433	4	12	9.5	1839.67669	0.29525	0.10799	0.02726	26.47944	0.76431	0.29691	4.13036	0.63379	5179.67935
2434	4	12	10.5	2544.08462	0.38869	0.14934	0.07935	36.57891	1.13538	0.86442	497.21971	0.77295	4465079.94903
2435	4	12	11.5	2899.85025	0.41199	0.17022	0.08177	37.23132	1.19717	0.89077	488.12861	0.78023	5418688.0
2436	4	12	12.5	2964.92481	0.41482	0.17404	0.08078	36.89536	1.17186	0.87992	516.13076	0.7765	5601984.0
2437	4	12	13.5	2874.68079	0.41508	0.16874	0.08634	37.34814	1.15691	0.94047	571.88747	0.78151	5432840.47856
2438	4	12	14.5	2322.3309	0.32416	0.13632	0.02784	29.59931	1.10504	0.30323	3.8081	0.68216	4949.9976
2439	4	12	15.5	1825.61557	0.29547	0.10716	0.02831	27.03992	0.78761	0.30834	4.21485	0.64283	5419.8726
2440	4	12	16.5	1208.70783	0.23714	0.07095	0.00619	14.78373	0.07302	0.06745	4.64613	0.41671	4101.19725
2441	4	12	17.5	580.10152	0.19757	0.03405	0.00352	10.21274	0.00967	0.03832	4.46273	0.32481	2676.30722
2442	4	12	18.5	152.74538	0.16897	0.00897	0.0	0.0	0.0	0.0	3.26129	0.14352	410.24808
2455	4	13	7.5	444.79277	0.18611	0.02611	0.0	0.0	0.0	0.0	3.63002	0.14352	1590.3949
2456	4	13	8.5	1056.04707	0.22584	0.06199	0.00385	12.45191	0.03242	0.04193	4.02509	0.3697	3252.3969
2457	4	13	9.5	1808.79989	0.29289	0.10618	0.02671	26.00077	0.73409	0.29101	3.97204	0.62595	4773.8969
2458	4	13	10.5	2487.88457	0.37578	0.14604	0.06974	34.91954	1.08525	0.75968	372.32948	0.75352	4066880.0
2459	4	13	11.5	2870.10088	0.41072	0.16847	0.08225	37.10785	1.18153	0.89597	519.68289	0.77886	5163469.6484
2460	4	13	12.5	2987.18356	0.41813	0.17535	0.08278	37.13471	1.16292	0.90178	576.96113	0.77916	5665862.40655
2461	4	13	13.5	2883.37873	0.41083	0.16925	0.08158	36.9025	1.14563	0.88862	513.23288	0.77658	5579072.0
2462	4	13	14.5	2356.74722	0.32648	0.13834	0.02814	29.81796	1.09733	0.3065	3.87903	0.68537	5060.42295
2463	4	13	15.5	1850.08514	0.29731	0.1086	0.02871	27.26427	0.78848	0.3127	4.30849	0.6464	5582.42935
2464	4	13	16.5	1223.75573	0.2381	0.07183	0.00626	14.8623	0.07184	0.06823	4.66868	0.41829	4168.32225
2465	4	13	17.5	604.15454	0.19815	0.03546	0.00269	9.3438	0.00813	0.02928	4.28478	0.30761	2519.68222
2466	4	13	18.5	156.74568	0.1692	0.0092	0.0	0.0	0.0	0.0	3.34555	0.14352	401.85745
2479	4	14	7.5	517.36268	0.19124	0.03037	0.00087	4.81758	0.00277	0.00946	3.92582	0.22211	2094.55722
2480	4	14	8.5	1113.23043	0.22972	0.06535	0.00437	13.09673	0.0352	0.04762	4.11775	0.38271	3498.5219
2481	4	14	9.5	1827.01232	0.29442	0.10725	0.02718	26.40469	0.76215	0.29603	3.99664	0.63257	4796.2719
2482	4	14	10.5	2535.28358	0.37659	0.14882	0.06777	34.78394	1.08675	0.73822	361.35028	0.75188	3998144.0
2483	4	14	11.5	2938.05573	0.40651	0.17246	0.07405	36.17747	1.17558	0.8066	411.26068	0.76837	4983360.0
2484	4	14	12.5	3087.76411	0.42475	0.18125	0.0835	37.53327	1.15472	0.90954	615.40122	0.78353	6028357.16448
2485	4	14	13.5	2967.86986	0.41651	0.17421	0.0823	37.26356	1.14172	0.89648	548.89951	0.78058	5831104.0
2486	4	14	14.5	2390.56756	0.32887	0.14033	0.02854	30.12469	1.09018	0.31089	3.97735	0.68984	5178.2297
2487	4	14	15.5	1878.35192	0.29883	0.11026	0.02857	27.19585	0.78701	0.31123	4.1599	0.64532	5352.7476
2488	4	14	16.5	1235.26739	0.23857	0.07251	0.00606	14.757	0.07059	0.06602	4.71285	0.41617	4257.82225
2489	4	14	17.5	612.56721	0.19877	0.03596	0.00281	9.54549	0.00773	0.03061	4.33976	0.31159	2597.99472
2490	4	14	18.5	163.42795	0.16959	0.00959	0.0	0.0	0.0	0.0	3.36415	0.14352	413.96763
2503	4	15	7.5	480.13673	0.18818	0.02818	0.0	0.0	0.0	0.0	3.64676	0.14352	1623.9574
2504	4	15	8.5	805.85316	0.20746	0.0473	0.00015	0.06976	0.00117	0.00166	3.3802	0.14453	2200.30074
2533	4	16	13.5	1389.6576	0.24669	0.08157	0.00512	14.28911	0.02997	0.05578	13.97942	0.40675	388072.0
2534	4	16	14.5	1333.19672	0.23956	0.07826	0.0013	9.1759	0.02579	0.01415	3.21987	0.30431	3423.61604
2535	4	16	15.5	1136.31626	0.22743	0.0667	0.00073	6.61853	0.00968	0.00798	3.42266	0.25511	2797.24902
2557	4	17	13.5	1933.77333	0.31033	0.11351	0.03682	27.44821	0.73291	0.40105	79.42423	0.64932	1423408.0
2558	4	17	14.5	2075.25549	0.30854	0.12182	0.02672	26.53794	0.78079	0.29106	3.57233	0.63474	4563.29139
2559	4	17	15.5	1810.05037	0.29489	0.10625	0.02864	27.08729	0.78328	0.31201	4.06395	0.64358	4587.5155
2560	4	17	16.5	1216.02074	0.23719	0.07138	0.00581	14.53798	0.06989	0.06326	4.63237	0.41176	4034.07225
2561	4	17	17.5	606.1368	0.19846	0.03558	0.00288	9.61204	0.00834	0.03142	4.44554	0.3129	2676.30722
2562	4	17	18.5	176.44658	0.17036	0.01036	0.0	0.0	0.0	0.0	3.40619	0.14352	442.11759
2578	4	18	10.5	1612.77569	0.27221	0.09467	0.01754	19.7613	0.07668	0.19112	64.53829	0.51461	1068272.0
2579	4	18	11.5	2314.05467	0.3403	0.13584	0.04446	29.34746	0.79059	0.48434	138.03218	0.67844	2697888.0
2580	4	18	12.5	2733.29857	0.38211	0.16044	0.06166	34.10407	1.11686	0.67169	339.3386	0.74349	3926352.37046
2581	4	18	13.5	2683.57132	0.38564	0.15753	0.06811	34.91785	1.10272	0.74197	406.30204	0.7535	4216743.54993
2582	4	18	14.5	2219.64544	0.31811	0.13029	0.02781	28.00387	0.90957	0.30299	3.81063	0.65802	4347.32225
2583	4	18	15.5	1750.37041	0.2915	0.10275	0.02876	27.06925	0.7822	0.31325	4.16331	0.6433	4660.57225
2584	4	18	16.5	1186.66302	0.23463	0.06966	0.00497	13.84953	0.06405	0.05419	4.53322	0.39789	3826.7655
2585	4	18	17.5	610.54702	0.1987	0.03584	0.00286	9.60561	0.00788	0.0312	4.43438	0.31277	2628.59135
2586	4	18	18.5	182.63346	0.17072	0.01072	0.0	0.0	0.0	0.0	3.41741	0.14352	451.82215
2696	4	23	8.5	720.56223	0.2023	0.0423	0.0	0.0	0.0	0.0	3.36632	0.14352	1922.12947
2697	4	23	9.5	1146.2795	0.22774	0.06729	0.00045	4.92886	0.00634	0.00491	3.31416	0.2241	2683.92454
2698	4	23	10.5	1358.04709	0.24503	0.07972	0.00531	14.3279	0.0241	0.05784	21.42424	0.40753	482584.0
2699	4	23	11.5	1385.54256	0.24273	0.08133	0.0014	9.57583	0.03005	0.01528	3.1078	0.31219	3459.53499
2801	4	27	17.5	461.5785	0.18709	0.02709	0.0	0.0	0.0	0.0	3.59705	0.14352	1217.94816
2818	4	28	10.5	1747.67926	0.292	0.10259	0.02941	24.95266	0.56423	0.3204	65.70271	0.60841	1177104.0
2819	4	28	11.5	2373.64766	0.32689	0.13933	0.02755	28.0745	0.927	0.30015	3.66859	0.65912	4900.49919
2820	4	28	12.5	2833.36772	0.3781	0.16632	0.05179	33.35244	1.04879	0.56411	313.30809	0.73396	4043968.0
2821	4	28	13.5	2752.43193	0.37793	0.16157	0.05636	33.98591	1.0339	0.61392	372.39903	0.74201	4341824.0
2822	4	28	14.5	2292.92986	0.32452	0.13459	0.02992	29.9027	0.99053	0.32595	4.16199	0.68661	4486.05435
2823	4	28	15.5	1806.82033	0.29679	0.10606	0.03073	28.00097	0.77616	0.33474	4.51939	0.65798	4591.9976
2824	4	28	16.5	1236.64834	0.23657	0.07259	0.00397	13.07434	0.04673	0.04329	4.80017	0.38226	4011.69725
2825	4	28	17.5	672.78494	0.20044	0.03949	0.00094	5.90431	0.00353	0.01027	4.4667	0.24183	2686.7699
2826	4	28	18.5	238.11176	0.17398	0.01398	0.0	0.0	0.0	0.0	3.61977	0.14352	524.34305
2838	4	29	6.5	199.48861	0.17171	0.01171	0.0	0.0	0.0	0.0	3.30509	0.14352	458.33857
2839	4	29	7.5	568.08282	0.19335	0.03335	0.0	0.0	0.0	0.0	3.71756	0.14352	1354.59934
2840	4	29	8.5	973.91785	0.21767	0.05717	0.0005	4.78754	0.00551	0.00543	3.61813	0.22158	2526.18789
2841	4	29	9.5	1303.44545	0.23872	0.07651	0.00221	11.0782	0.04895	0.02407	3.60309	0.34209	2935.98129
2842	4	29	10.5	1490.5062	0.24971	0.08749	0.00221	11.4663	0.04126	0.0241	4.80777	0.34987	295708.0
2843	4	29	11.5	1468.96874	0.24753	0.08623	0.0013	9.47119	0.02959	0.01413	3.19304	0.31012	3686.18429
2872	4	30	16.5	861.97202	0.21077	0.0506	0.00017	0.73472	0.00137	0.0019	3.8021	0.15444	2301.71307
2873	4	30	17.5	578.44805	0.19395	0.03395	0.0	0.0	0.0	0.0	3.94574	0.14352	1613.49472
2874	4	30	18.5	242.95126	0.17426	0.01426	0.0	0.0	0.0	0.0	3.54572	0.14352	553.23447
2910	5	2	6.5	244.02955	0.17432	0.01432	0.0	0.0	0.0	0.0	3.43188	0.14352	533.47514
2911	5	2	7.5	613.00971	0.19598	0.03598	0.0	0.0	0.0	0.0	4.00353	0.14352	1268.65432
2912	5	2	8.5	939.61811	0.21566	0.05516	0.0005	4.68832	0.00511	0.00545	3.7717	0.21981	2432.27237
2914	5	2	10.5	1382.32663	0.24266	0.08114	0.00151	9.84909	0.0327	0.0165	3.314	0.31759	3377.41639
2915	5	2	11.5	1810.00309	0.29201	0.10625	0.02576	25.42718	0.71434	0.28065	3.41429	0.61641	4314.13394
2916	5	2	12.5	2168.78698	0.32026	0.12731	0.03296	27.54764	0.74236	0.35899	85.52884	0.65089	1598112.0
2917	5	2	13.5	2082.756	0.31585	0.12226	0.03359	27.6034	0.74246	0.36589	86.3762	0.65176	1540832.0
2918	5	2	14.5	1792.51314	0.29295	0.10522	0.02773	26.39899	0.75494	0.30209	3.7317	0.63248	4203.84174
2919	5	2	15.5	1437.43695	0.25364	0.08438	0.00926	17.04148	0.12886	0.1009	3.87081	0.46177	3283.56744
2920	5	2	16.5	911.97318	0.2138	0.05353	0.00027	2.384	0.00231	0.0029	3.82284	0.18042	2413.58807
2934	5	3	6.5	250.86444	0.17473	0.01473	0.0	0.0	0.0	0.0	3.47051	0.14352	549.69613
2935	5	3	7.5	685.5521	0.20024	0.04024	0.0	0.0	0.0	0.0	4.31898	0.14352	1277.63415
2936	5	3	8.5	1259.23314	0.23733	0.07392	0.00341	12.54672	0.03905	0.03719	4.73951	0.37161	4084.754
2937	5	3	9.5	1873.1693	0.30093	0.10996	0.03097	28.17899	0.77097	0.33739	4.56581	0.66073	4547.2476
2938	5	3	10.5	2316.18091	0.32588	0.13596	0.02992	29.89342	0.97835	0.32588	4.18238	0.68647	4524.8726
2939	5	3	11.5	2389.72507	0.32825	0.14028	0.02797	27.97842	0.88144	0.3047	3.70026	0.65763	5098.84174
2940	5	3	12.5	2181.576	0.32191	0.12806	0.03385	27.7599	0.74261	0.36877	99.58974	0.65422	1747040.0
2941	5	3	13.5	2394.11686	0.34136	0.14053	0.04082	29.92075	0.85009	0.4447	179.30195	0.68687	2594784.0
2942	5	3	14.5	2187.289	0.31776	0.12839	0.02937	27.83838	0.79065	0.3199	4.05803	0.65544	4518.67454
2943	5	3	15.5	1833.89877	0.29882	0.10765	0.03117	28.16298	0.7722	0.33951	4.49527	0.66048	4257.82225
2944	5	3	16.5	1254.83778	0.2372	0.07366	0.00355	12.67896	0.04223	0.03862	4.77858	0.37428	3877.44725
2945	5	3	17.5	691.00063	0.20056	0.04056	0.0	0.0	0.0	0.0	4.4419	0.14352	1500.8949
2946	5	3	18.5	260.03292	0.17526	0.01526	0.0	0.0	0.0	0.0	3.67409	0.14352	552.493
2993	5	5	17.5	494.0628	0.189	0.029	0.0	0.0	0.0	0.0	3.69262	0.14352	1200.80458
3011	5	6	11.5	1417.55778	0.24461	0.08321	0.0014	9.6355	0.02864	0.01526	3.25624	0.31336	3572.85964
3012	5	6	12.5	1775.31065	0.29061	0.10421	0.0264	25.24925	0.67004	0.28762	15.7296	0.61342	723160.0
3013	5	6	13.5	1403.92097	0.2437	0.08241	0.00129	9.30705	0.02978	0.01402	3.325	0.30689	3580.24104
3030	5	7	6.5	220.3645	0.17294	0.01294	0.0	0.0	0.0	0.0	3.31339	0.14352	494.87915
3031	5	7	7.5	594.8677	0.19492	0.03492	0.0	0.0	0.0	0.0	3.83918	0.14352	1249.30298
3032	5	7	8.5	1103.44318	0.22634	0.06477	0.00157	9.2544	0.01481	0.01712	4.00882	0.30585	2710.91479
3033	5	7	9.5	1629.25196	0.28221	0.09564	0.02658	24.71232	0.58298	0.28951	3.94022	0.60431	3540.10629
3034	5	7	10.5	2015.66987	0.30652	0.11832	0.0282	27.07456	0.77425	0.30724	3.82802	0.64338	4336.64209
3035	5	7	11.5	2133.34332	0.31247	0.12523	0.02724	26.59902	0.74884	0.29676	3.57712	0.63573	4963.00894
3036	5	7	12.5	2106.90573	0.31078	0.12368	0.02711	26.46419	0.74156	0.29531	3.51303	0.63354	5071.85149
3037	5	7	13.5	2198.57615	0.31686	0.12906	0.0278	26.89996	0.75151	0.30286	3.65769	0.64058	5159.90184
3038	5	7	14.5	2066.12465	0.31027	0.12128	0.02899	27.32486	0.76501	0.31581	3.89146	0.64737	4652.79139
3039	5	7	15.5	1761.24809	0.29463	0.10339	0.03124	28.03294	0.76784	0.34034	4.45317	0.65847	3810.32225
3040	5	7	16.5	1253.99748	0.23707	0.07361	0.00346	12.57119	0.03802	0.03765	4.92264	0.37211	3922.19725
3041	5	7	17.5	744.71023	0.20371	0.04371	0.0	0.0	0.0	0.0	4.37409	0.14352	1432.91192
3042	5	7	18.5	299.23043	0.17756	0.01756	0.0	0.0	0.0	0.0	3.73552	0.14352	626.8881
3054	5	8	6.5	278.06956	0.17632	0.01632	0.0	0.0	0.0	0.0	3.73827	0.14352	560.14216
3055	5	8	7.5	732.73887	0.20301	0.04301	0.0	0.0	0.0	0.0	4.21453	0.14352	1376.97434
3056	5	8	8.5	1284.02397	0.2384	0.07537	0.00303	12.15608	0.03638	0.03301	4.68746	0.36374	3922.19725
3057	5	8	9.5	1878.27181	0.30144	0.11025	0.03119	28.20677	0.76644	0.33975	4.49727	0.66116	4189.2476
3058	5	8	10.5	2362.43961	0.32953	0.13868	0.03085	30.31757	0.95431	0.33606	4.38218	0.69262	4724.79795
3059	5	8	11.5	2604.79816	0.34281	0.1529	0.02991	30.19325	0.99634	0.32577	4.10527	0.69083	4952.8969
3060	5	8	12.5	2557.41212	0.3396	0.15012	0.02948	29.60442	0.99186	0.32111	3.91223	0.68224	5327.07384
3061	5	8	13.5	2239.19	0.31965	0.13144	0.02821	27.19959	0.76284	0.30725	3.83424	0.64538	4903.39849
3062	5	8	14.5	1596.19028	0.27631	0.0937	0.02262	22.77223	0.44295	0.24638	3.71212	0.57033	3868.21674
3085	5	9	13.5	1405.79058	0.24382	0.08252	0.0013	9.35032	0.02761	0.0142	3.33912	0.30774	3663.80929
3086	5	9	14.5	1370.62826	0.24228	0.08046	0.00182	10.49596	0.03363	0.01986	3.54748	0.33045	3487.84174
3087	5	9	15.5	1198.35016	0.23114	0.07034	0.0008	7.08054	0.01284	0.00867	3.66313	0.26382	2977.69884
3088	5	9	16.5	1021.34425	0.22112	0.05995	0.00117	7.94938	0.01142	0.01272	4.08738	0.28043	2503.08807
3089	5	9	17.5	684.6831	0.20019	0.04019	0.0	0.0	0.0	0.0	4.08036	0.14352	1474.69604
3090	5	9	18.5	294.82912	0.17731	0.01731	0.0	0.0	0.0	0.0	3.72334	0.14352	617.36471
3102	5	10	6.5	289.29547	0.17698	0.01698	0.0	0.0	0.0	0.0	3.58747	0.14352	601.32492
3103	5	10	7.5	725.65571	0.2026	0.0426	0.0	0.0	0.0	0.0	4.35083	0.14352	1297.93701
3104	5	10	8.5	1273.64256	0.238	0.07476	0.00324	12.37978	0.03725	0.03527	4.76624	0.36825	3899.82225
3105	5	10	9.5	1835.14029	0.29915	0.10772	0.03143	28.2267	0.76416	0.34234	4.54312	0.66147	4054.9976
3106	5	10	10.5	2321.78254	0.32704	0.13629	0.03075	30.03887	0.94353	0.335	4.31864	0.68859	4599.379
3107	5	10	11.5	2625.90917	0.34443	0.15414	0.03029	30.42354	0.99019	0.32998	4.18841	0.69414	5063.32225
3108	5	10	12.5	2706.32511	0.34925	0.15886	0.03039	30.46525	0.98479	0.33106	4.1915	0.69474	5219.94725
3109	5	10	13.5	2609.13231	0.34374	0.15316	0.03058	30.33727	0.96999	0.33317	4.25175	0.6929	5085.69725
3110	5	10	14.5	2295.66415	0.32633	0.13476	0.03157	30.37128	0.93228	0.34392	4.48034	0.69339	4724.79795
3111	5	10	15.5	1824.66551	0.29978	0.10711	0.03267	28.86742	0.76784	0.3559	4.86178	0.67124	4239.92935
3112	5	10	16.5	1294.38937	0.25338	0.07598	0.0174	19.75722	0.18378	0.18955	5.0734	0.51453	4129.504
3113	5	10	17.5	772.00949	0.20532	0.04532	0.0	0.0	0.0	0.0	4.46846	0.14352	1421.72434
3114	5	10	18.5	314.46327	0.17846	0.01846	0.0	0.0	0.0	0.0	3.80634	0.14352	643.37476
3126	5	11	6.5	307.53014	0.17805	0.01805	0.0	0.0	0.0	0.0	3.58324	0.14352	639.17944
3127	5	11	7.5	739.40378	0.2034	0.0434	0.0	0.0	0.0	0.0	4.45359	0.14352	1266.80897
3128	5	11	8.5	1292.53614	0.2458	0.07587	0.00993	16.91208	0.09079	0.10818	4.86837	0.45921	4056.44725
3129	5	11	9.5	1863.58721	0.30139	0.10939	0.03199	28.56956	0.76432	0.34852	4.71433	0.66672	4172.80435
3130	5	11	10.5	2364.66709	0.32999	0.13881	0.03119	30.35119	0.94038	0.33974	4.41881	0.6931	4799.30435
3131	5	11	11.5	2677.74977	0.3479	0.15718	0.03071	30.72332	0.98424	0.33454	4.29856	0.69841	5355.6469
3132	5	11	12.5	2769.64739	0.35337	0.16258	0.03079	30.78859	0.98111	0.33541	4.29415	0.69933	5382.504
3133	5	11	13.5	2672.63616	0.3478	0.15688	0.03091	30.64758	0.97136	0.33675	4.32145	0.69734	5269.17935
3134	5	11	14.5	2342.51862	0.32947	0.13751	0.03197	30.67307	0.92908	0.34822	4.5832	0.6977	4932.1047
3135	5	11	15.5	1848.83254	0.30166	0.10853	0.03314	29.15056	0.76737	0.36095	4.99716	0.6755	4327.9797
3136	5	11	16.5	1311.3122	0.26002	0.07697	0.02305	21.65027	0.273	0.25107	5.14944	0.54997	4219.004
3137	5	11	17.5	778.67051	0.20571	0.04571	0.0	0.0	0.0	0.0	4.50908	0.14352	1420.99951
3138	5	11	18.5	321.47138	0.17887	0.01887	0.0	0.0	0.0	0.0	3.81629	0.14352	648.96851
3150	5	12	6.5	311.99869	0.17831	0.01831	0.0	0.0	0.0	0.0	3.59493	0.14352	630.60761
3151	5	12	7.5	740.50516	0.20347	0.04347	0.0	0.0	0.0	0.0	4.46856	0.14352	1262.69816
3152	5	12	8.5	1295.07801	0.24789	0.07602	0.01187	17.74045	0.11084	0.1293	4.87746	0.47553	4011.69725
3153	5	12	9.5	1859.6161	0.3012	0.10916	0.03204	28.57513	0.76307	0.34905	4.71592	0.66681	4166.8726
3154	5	12	10.5	2344.48162	0.32896	0.13762	0.03134	30.4058	0.93604	0.34143	4.47012	0.69388	4797.8547
3155	5	12	11.5	2617.74099	0.34428	0.15366	0.03062	30.46694	0.97436	0.3335	4.25922	0.69476	5084.2476
3156	5	12	12.5	2680.07209	0.34783	0.15732	0.03051	30.42519	0.97578	0.3324	4.21295	0.69416	5197.57225
3157	5	12	13.5	2584.65401	0.3425	0.15172	0.03078	30.36832	0.9634	0.33528	4.27984	0.69335	5070.70365
3158	5	12	14.5	2283.12763	0.32579	0.13402	0.03177	30.38983	0.92417	0.34604	4.51816	0.69366	4754.55435
3159	5	12	15.5	1822.11267	0.2998	0.10696	0.03284	28.92951	0.76619	0.35778	4.88467	0.67218	4150.42935
3160	5	12	16.5	1300.88268	0.25675	0.07636	0.02039	20.7457	0.22623	0.22207	5.10158	0.53319	4099.7476
3161	5	12	17.5	778.98464	0.20573	0.04573	0.0	0.0	0.0	0.0	4.49539	0.14352	1409.81201
3162	5	12	18.5	325.53449	0.17911	0.01911	0.0	0.0	0.0	0.0	3.8286	0.14352	654.56226
3174	5	13	6.5	314.99211	0.17849	0.01849	0.0	0.0	0.0	0.0	3.60185	0.14352	648.96851
3175	5	13	7.5	745.73888	0.20377	0.04377	0.0	0.0	0.0	0.0	4.47251	0.14352	1256.74208
3176	5	13	8.5	1300.11391	0.25091	0.07632	0.01459	18.78475	0.14361	0.15893	4.89807	0.49587	4011.69725
3177	5	13	9.5	1861.39117	0.30154	0.10926	0.03228	28.68095	0.76246	0.35163	4.75979	0.66842	4150.42935
3178	5	13	10.5	2356.09301	0.32995	0.1383	0.03164	30.58385	0.93217	0.34469	4.53968	0.69643	4887.3547
3179	5	13	11.5	2672.62603	0.34781	0.15688	0.03093	30.76846	0.97581	0.33692	4.33696	0.69905	5224.42935
3180	5	13	12.5	2753.45839	0.35257	0.16163	0.03095	30.77665	0.97212	0.3371	4.32173	0.69917	5397.4976
3181	5	13	13.5	2653.00884	0.34688	0.15573	0.03115	30.65231	0.95842	0.33934	4.38124	0.6974	5269.17935
3182	5	13	14.5	2324.55771	0.32862	0.13645	0.03217	30.70154	0.92136	0.35044	4.62612	0.6981	4888.80435
3183	5	13	15.5	1846.58864	0.30169	0.10839	0.03329	29.19751	0.7659	0.36265	5.01001	0.6762	4281.78005
3184	5	13	16.5	1314.39252	0.26144	0.07715	0.02428	22.08058	0.29751	0.26451	5.15527	0.55784	4172.80435
3185	5	13	17.5	788.05935	0.20626	0.04626	0.0	0.0	0.0	0.0	4.51118	0.14352	1421.72434
3186	5	13	18.5	318.1064	0.17867	0.01867	0.0	0.0	0.0	0.0	3.91855	0.14352	614.38667
3198	5	14	6.5	317.62693	0.17864	0.01864	0.0	0.0	0.0	0.0	3.61269	0.14352	648.96851
3199	5	14	7.5	750.89387	0.20408	0.04408	0.0	0.0	0.0	0.0	4.46877	0.14352	1262.69816
3200	5	14	8.5	1298.74395	0.25119	0.07624	0.01495	18.90965	0.14798	0.16289	4.89497	0.49828	3989.32225
3201	5	14	9.5	1856.4015	0.30129	0.10897	0.03232	28.67776	0.76169	0.35209	4.75383	0.66837	4122.1226
3202	5	14	10.5	2346.19064	0.32938	0.13772	0.03165	30.51004	0.92771	0.34482	4.53022	0.69538	4844.05435
3203	5	14	11.5	2659.24958	0.34705	0.1561	0.03095	30.68907	0.96932	0.33715	4.33973	0.69793	5218.4976
3204	5	14	12.5	2745.27556	0.35212	0.16115	0.03098	30.73495	0.96802	0.33742	4.31886	0.69858	5382.504
3205	5	14	13.5	2642.37942	0.3463	0.15511	0.03119	30.6226	0.95489	0.33977	4.37992	0.69698	5242.32225
3206	5	14	14.5	2320.65945	0.32837	0.13622	0.03215	30.62892	0.91751	0.35023	4.61733	0.69707	4866.42935
3207	5	14	15.5	1842.92982	0.30137	0.10818	0.03319	29.11707	0.76508	0.36151	4.95183	0.675	4210.17295
3208	5	14	16.5	1309.57105	0.26107	0.07687	0.0242	22.02693	0.29325	0.26356	5.15701	0.55686	4122.1226
3209	5	14	17.5	765.77763	0.20495	0.04495	0.0	0.0	0.0	0.0	4.74591	0.14352	1292.2498
3210	5	14	18.5	323.91627	0.17901	0.01901	0.0	0.0	0.0	0.0	3.9192	0.14352	619.23895
3222	5	15	6.5	324.29012	0.17904	0.01904	0.0	0.0	0.0	0.0	3.63126	0.14352	660.51842
3223	5	15	7.5	756.24247	0.20439	0.04439	0.0	0.0	0.0	0.0	4.49694	0.14352	1254.9389
3224	5	15	8.5	1302.64323	0.25449	0.07647	0.01803	19.97307	0.191	0.19639	4.91232	0.51864	3972.879
3225	5	15	9.5	1864.59265	0.30195	0.10945	0.0325	28.77708	0.76108	0.35403	4.80111	0.66988	4150.42935
3226	5	15	10.5	2340.16235	0.32913	0.13737	0.03176	30.52438	0.92363	0.34596	4.55647	0.69558	4888.80435
3227	5	15	11.5	2584.62872	0.34245	0.15172	0.03073	30.38191	0.96411	0.33478	4.26224	0.69354	5057.3905
3228	5	15	12.5	2533.49272	0.33891	0.14872	0.0302	29.79935	0.96186	0.32894	4.07162	0.6851	5236.12419
3229	5	15	13.5	2448.46152	0.33417	0.14372	0.03044	29.7159	0.94382	0.3316	4.14782	0.68388	4994.48129
3230	5	15	14.5	2170.92511	0.3182	0.12743	0.03077	28.37872	0.78006	0.33515	4.34254	0.66381	4342.84015
3231	5	15	15.5	1749.3374	0.29485	0.10269	0.03217	28.40376	0.76221	0.35041	4.63821	0.66419	3698.44725
3232	5	15	16.5	1257.62774	0.2366	0.07382	0.00278	11.76018	0.03381	0.03024	4.71401	0.35577	3476.1469
3233	5	15	17.5	760.383	0.20463	0.04463	0.0	0.0	0.0	0.0	4.61002	0.14352	1338.9964
3234	5	15	18.5	324.9443	0.17907	0.01907	0.0	0.0	0.0	0.0	3.89177	0.14352	627.81074
3247	5	16	7.5	519.37845	0.19049	0.03049	0.0	0.0	0.0	0.0	3.55687	0.14352	1172.47342
3248	5	16	8.5	871.76094	0.21126	0.05117	8e-05	0.0	0.00086	0.00091	3.61569	0.14352	2065.32592
3249	5	16	9.5	1221.54328	0.23299	0.0717	0.00129	8.87296	0.02226	0.01403	3.67323	0.29837	2864.37419
3272	5	17	8.5	805.46552	0.20728	0.04728	0.0	0.0	0.0	0.0	3.56506	0.14352	1922.85429
3273	5	17	9.5	1205.05727	0.2316	0.07074	0.00086	7.38422	0.01401	0.00939	3.56672	0.26959	2888.19884
3274	5	17	10.5	1490.53386	0.25751	0.08749	0.01002	17.48373	0.13153	0.10911	3.46759	0.47049	3747.37754
3275	5	17	11.5	1679.08414	0.28188	0.09856	0.02332	23.31877	0.49119	0.25399	3.43527	0.58007	4311.10149
3276	5	17	12.5	1742.25521	0.28753	0.10227	0.02525	24.50911	0.59727	0.27511	3.44098	0.60083	4490.10149
3277	5	17	13.5	1666.99398	0.28186	0.09785	0.02401	23.57738	0.50983	0.26151	3.47768	0.58463	4324.64544
3278	5	17	14.5	1470.7197	0.25908	0.08633	0.01275	18.59137	0.16605	0.13887	3.60273	0.49212	3777.13394
3279	5	17	15.5	1208.78189	0.23242	0.07096	0.00146	9.31011	0.02686	0.01594	3.85556	0.30695	2931.49919
3280	5	17	16.5	922.31562	0.21424	0.05414	0.0001	0.0	0.00101	0.00107	3.88267	0.14352	2177.92574
3281	5	17	17.5	603.19088	0.19541	0.03541	0.0	0.0	0.0	0.0	3.83259	0.14352	1332.22434
3282	5	17	18.5	280.59413	0.17647	0.01647	0.0	0.0	0.0	0.0	3.56045	0.14352	597.78658
3294	5	18	6.5	290.53182	0.17705	0.01705	0.0	0.0	0.0	0.0	3.59599	0.14352	583.43984
3295	5	18	7.5	693.93373	0.20073	0.04073	0.0	0.0	0.0	0.0	4.14413	0.14352	1309.12451
3296	5	18	8.5	1206.11578	0.23285	0.0708	0.00205	10.50869	0.02592	0.02232	4.52362	0.3307	3274.7719
3297	5	18	9.5	1734.32454	0.29287	0.1018	0.03107	27.60781	0.73399	0.33842	4.40972	0.65183	3543.2719
3298	5	18	10.5	2080.81263	0.31169	0.12214	0.02954	27.62395	0.76459	0.32183	4.03439	0.65209	4455.89849
3299	5	18	11.5	2201.824	0.3178	0.12925	0.02855	27.24406	0.75553	0.31099	3.81365	0.64608	5006.30929
3300	5	18	12.5	2079.71775	0.31019	0.12208	0.02811	26.83356	0.74177	0.30624	3.70974	0.63952	5004.72649
3301	5	18	13.5	1800.11555	0.29322	0.10567	0.02755	26.13297	0.72515	0.30009	3.64335	0.62812	4512.47649
3302	5	18	14.5	1372.99374	0.24202	0.08059	0.00142	9.60219	0.02981	0.01552	3.64816	0.31271	3534.04139
3321	5	19	9.5	1221.83331	0.23274	0.07172	0.00102	8.01889	0.01708	0.01108	3.65066	0.28177	2910.57384
3322	5	19	10.5	1853.11241	0.29768	0.10878	0.0289	27.00829	0.75912	0.31484	3.9067	0.64232	4159.09174
3323	5	19	11.5	2385.25396	0.32965	0.14001	0.02963	28.46146	0.84262	0.3228	3.98718	0.66507	5167.41639
3324	5	19	12.5	2631.34931	0.34526	0.15446	0.0308	30.15948	0.94862	0.33546	4.19445	0.69034	5324.17454
3325	5	19	13.5	2546.3473	0.34064	0.14947	0.03117	30.24602	0.93348	0.33949	4.34975	0.69159	5042.3969
3326	5	19	14.5	2245.46656	0.32392	0.13181	0.03211	30.18485	0.89276	0.3498	4.56481	0.69071	4666.504
3327	5	19	15.5	1817.33996	0.29965	0.10668	0.03297	28.89036	0.7611	0.35916	4.82188	0.67159	4032.6226
3328	5	19	16.5	1227.22563	0.23447	0.07204	0.00243	11.19414	0.03168	0.02646	4.64704	0.34441	3207.6469
3329	5	19	17.5	652.34996	0.19829	0.03829	0.0	0.0	0.0	0.0	4.14689	0.14352	1297.93701
3342	5	20	6.5	323.09934	0.17897	0.01897	0.0	0.0	0.0	0.0	3.64164	0.14352	643.37476
3343	5	20	7.5	670.47446	0.19936	0.03936	0.0	0.0	0.0	0.0	3.89292	0.14352	1353.87451
3344	5	20	8.5	940.37566	0.21535	0.0552	0.00015	0.46565	0.00157	0.00163	3.78017	0.15039	2201.02557
3367	5	21	7.5	573.0776	0.19364	0.03364	0.0	0.0	0.0	0.0	3.68885	0.14352	1257.10441
3368	5	21	8.5	1112.53954	0.22608	0.06531	0.00077	6.72688	0.00915	0.00838	4.18031	0.25715	2640.4371
3369	5	21	9.5	1733.58631	0.29289	0.10176	0.03112	27.57956	0.7293	0.33905	4.39146	0.65139	3477.59655
3370	5	21	10.5	2115.35143	0.31435	0.12417	0.03018	27.99144	0.7693	0.32873	4.17214	0.65783	4363.49919
3371	5	21	11.5	2323.30471	0.32584	0.13638	0.02946	28.00844	0.79527	0.32092	3.97345	0.65809	5077.91639
3372	5	21	12.5	2331.27061	0.32589	0.13685	0.02904	27.62018	0.76216	0.31636	3.8718	0.65203	5326.26469
3373	5	21	13.5	2313.1193	0.32532	0.13578	0.02954	27.84022	0.76859	0.32176	3.98771	0.65547	5189.79139
3374	5	21	14.5	2100.4209	0.31424	0.12329	0.03095	28.25935	0.76548	0.3371	4.35018	0.66197	4317.43269
3375	5	21	15.5	1739.45849	0.29454	0.10211	0.03243	28.26545	0.74056	0.35329	4.6889	0.66206	3677.5219
3376	5	21	16.5	1289.5357	0.25771	0.0757	0.02201	21.23403	0.24859	0.23979	5.10364	0.54229	3861.004
3377	5	21	17.5	787.14865	0.20621	0.04621	0.0	0.0	0.0	0.0	4.80659	0.14352	1336.9998
3378	5	21	18.5	353.69677	0.18076	0.02076	0.0	0.0	0.0	0.0	4.03942	0.14352	648.96851
3445	5	24	13.5	1803.32126	0.29407	0.10585	0.02822	26.45583	0.73289	0.30736	3.77434	0.6334	4403.63394
3446	5	24	14.5	1939.52319	0.30425	0.11385	0.0304	27.73144	0.75749	0.33112	4.18466	0.65377	4247.14209
3447	5	24	15.5	1750.5315	0.2951	0.10276	0.03234	28.1639	0.73297	0.35232	4.64434	0.6605	3655.1469
3448	5	24	16.5	1255.16413	0.24211	0.07368	0.00843	16.11262	0.07848	0.09182	4.89673	0.44332	3497.07225
3449	5	24	17.5	785.8883	0.20613	0.04613	0.0	0.0	0.0	0.0	4.59188	0.14352	1342.68701
3450	5	24	18.5	354.78222	0.18083	0.02083	0.0	0.0	0.0	0.0	3.94157	0.14352	669.86061
3462	5	25	6.5	360.88116	0.18118	0.02118	0.0	0.0	0.0	0.0	3.73048	0.14352	694.08092
3463	5	25	7.5	782.96668	0.20596	0.04596	0.0	0.0	0.0	0.0	4.59773	0.14352	1331.76846
3464	5	25	8.5	1321.75075	0.26245	0.07759	0.02487	22.33073	0.3175	0.27086	4.99012	0.56238	3898.3726
3465	5	25	9.5	1837.9117	0.3012	0.10789	0.03331	29.02943	0.75363	0.36288	4.91194	0.67368	4150.42935
3466	5	25	10.5	2305.58284	0.32798	0.13534	0.03264	30.60706	0.88909	0.35561	4.71415	0.69676	4881.42295
3467	5	25	11.5	2621.81998	0.34581	0.1539	0.03191	30.83734	0.93147	0.34763	4.51148	0.70002	5264.69725
3468	5	25	12.5	2709.39743	0.35095	0.15904	0.03191	30.90704	0.93164	0.34761	4.49841	0.70101	5443.69725
3469	5	25	13.5	2617.42491	0.34571	0.15364	0.03207	30.76586	0.92065	0.3493	4.54456	0.69901	5330.3726
3470	5	25	14.5	2302.09841	0.32819	0.13513	0.03306	30.76288	0.88459	0.36009	4.78407	0.69897	4978.30435
3471	5	25	15.5	1844.44322	0.30243	0.10827	0.03416	29.51907	0.75839	0.37216	5.10947	0.68098	4305.6047
3472	5	25	16.5	1340.89793	0.26916	0.07871	0.03045	24.58677	0.45097	0.33172	5.26471	0.60216	4040.004
3473	5	25	17.5	813.08267	0.20773	0.04773	0.0	0.0	0.0	0.0	4.86863	0.14352	1391.98577
3474	5	25	18.5	371.06852	0.18178	0.02178	0.0	0.0	0.0	0.0	4.10399	0.14352	667.23269
3486	5	26	6.5	364.00086	0.18137	0.02137	0.0	0.0	0.0	0.0	3.74809	0.14352	694.08092
3487	5	26	7.5	788.18497	0.20627	0.04627	0.0	0.0	0.0	0.0	4.60476	0.14352	1337.36221
3488	5	26	8.5	1327.80406	0.2634	0.07794	0.02546	22.56947	0.33316	0.27736	5.00463	0.56669	3883.379
3489	5	26	9.5	1835.01951	0.30108	0.10772	0.03337	29.03726	0.7526	0.3635	4.92048	0.6738	4150.42935
3490	5	26	10.5	2294.16299	0.32736	0.13467	0.03269	30.5743	0.88568	0.3561	4.71811	0.69629	4882.8726
3491	5	26	11.5	2592.97485	0.34419	0.15221	0.03199	30.77809	0.92447	0.34843	4.53469	0.69919	5242.32225
3492	5	26	12.5	2682.03286	0.34937	0.15744	0.03194	30.86678	0.92875	0.34791	4.50853	0.70044	5421.32225
3493	5	26	13.5	2585.73068	0.34393	0.15178	0.03215	30.72126	0.91491	0.35017	4.55717	0.69838	5270.629
3494	5	26	14.5	2293.65725	0.32772	0.13464	0.03308	30.7355	0.88202	0.36036	4.78475	0.69858	4888.80435
3495	5	26	15.5	1843.13253	0.30236	0.10819	0.03417	29.51805	0.75787	0.37224	5.11261	0.68096	4232.54795
3496	5	26	16.5	1344.8063	0.2693	0.07894	0.03036	24.57952	0.45243	0.33076	5.24004	0.60204	4032.6226
3497	5	26	17.5	818.85195	0.20807	0.04807	0.0	0.0	0.0	0.0	4.8404	0.14352	1400.2074
3498	5	26	18.5	373.91664	0.18195	0.02195	0.0	0.0	0.0	0.0	4.1	0.14352	664.26686
3510	5	27	6.5	343.36869	0.18016	0.02016	0.0	0.0	0.0	0.0	3.84724	0.14352	641.79511
3511	5	27	7.5	767.3291	0.20504	0.04504	0.0	0.0	0.0	0.0	4.43938	0.14352	1297.08543
3512	5	27	8.5	1223.90257	0.23381	0.07184	0.00197	10.40165	0.02573	0.02141	4.61269	0.32857	3235.95365
3513	5	27	9.5	1614.86861	0.28575	0.09479	0.03096	27.12771	0.70662	0.33723	4.37335	0.64423	3201.71515
3514	5	27	10.5	1849.24413	0.29783	0.10855	0.02928	27.10111	0.75571	0.31891	3.91566	0.64381	4206.74104
3515	5	27	11.5	1896.50339	0.29947	0.11132	0.02814	26.56693	0.73703	0.30658	3.72364	0.63521	4673.58359
3516	5	27	12.5	1728.30489	0.28845	0.10145	0.027	25.49095	0.66976	0.29408	3.6354	0.61748	4378.22649
3517	5	27	13.5	1534.13934	0.26825	0.09005	0.01819	20.79162	0.27805	0.19818	3.53706	0.53405	3979.95859
3563	5	29	11.5	1403.69952	0.24408	0.0824	0.00168	10.27473	0.03419	0.0183	3.46266	0.32604	3581.69069
3564	5	29	12.5	1713.06146	0.28738	0.10056	0.02683	25.29825	0.65296	0.29224	3.61974	0.61425	4405.08359
3565	5	29	13.5	2164.17513	0.3167	0.12704	0.02966	27.58966	0.74512	0.32309	4.01807	0.65155	4901.81569
3566	5	29	14.5	2164.35989	0.31871	0.12705	0.03166	28.60597	0.76239	0.34493	4.44667	0.66728	4429.17454
3567	5	29	15.5	1843.6379	0.30217	0.10822	0.03395	29.34445	0.75585	0.36982	5.00995	0.67839	4210.17295
3568	5	29	16.5	1269.38743	0.24948	0.07451	0.01497	18.84793	0.14905	0.16309	4.80128	0.49709	3319.5219
3569	5	29	17.5	666.23151	0.19911	0.03911	0.0	0.0	0.0	0.0	4.13569	0.14352	1309.12451
3607	5	31	7.5	586.98775	0.19446	0.03446	0.0	0.0	0.0	0.0	3.75205	0.14352	1240.68557
3608	5	31	8.5	1004.87805	0.21912	0.05899	0.00014	0.31914	0.00214	0.00148	3.88265	0.14821	2189.11324
3609	5	31	9.5	1449.15045	0.26508	0.08507	0.02001	21.21242	0.29465	0.21799	4.02083	0.54188	3155.24919
3610	5	31	10.5	1591.24834	0.27692	0.09341	0.02352	23.05889	0.4493	0.25617	3.72184	0.57546	3887.55929
3611	5	31	11.5	1550.81052	0.26912	0.09103	0.01809	20.83803	0.28899	0.19702	3.5725	0.53492	4000.88394
3630	6	1	6.5	372.37356	0.18186	0.02186	0.0	0.0	0.0	0.0	3.87462	0.14352	666.11217
3631	6	1	7.5	793.72397	0.20659	0.04659	0.0	0.0	0.0	0.0	4.6169	0.14352	1359.1481
3632	6	1	8.5	1262.01714	0.246	0.07408	0.01192	17.66522	0.10707	0.12984	4.91675	0.47405	3564.19725
3633	6	1	9.5	1615.34438	0.28585	0.09482	0.03103	27.10817	0.70291	0.33805	4.3521	0.64392	3188.1712
3634	6	1	10.5	2090.25576	0.3136	0.1227	0.0309	28.14298	0.75784	0.33662	4.25762	0.66018	4357.56744
3635	6	1	11.5	2444.40547	0.3349	0.14349	0.03141	29.91882	0.9061	0.34214	4.30461	0.68685	5012.37419
3636	6	1	12.5	2619.70227	0.34605	0.15378	0.03227	30.86579	0.91475	0.35152	4.57321	0.70043	5315.379
3637	6	1	13.5	2499.06394	0.33863	0.1467	0.03194	30.27831	0.89782	0.3479	4.47915	0.69205	5064.7719
3638	6	1	14.5	2196.33055	0.3211	0.12892	0.03217	28.915	0.7646	0.35045	4.58075	0.67196	4521.84015
3639	6	1	15.5	1759.66332	0.29629	0.10329	0.033	28.3814	0.72423	0.35947	4.77706	0.66385	3789.3969
3640	6	1	16.5	1243.21338	0.23792	0.07298	0.00494	13.89934	0.04746	0.05383	4.75091	0.3989	3162.8969
3641	6	1	17.5	745.85965	0.20378	0.04378	0.0	0.0	0.0	0.0	4.34231	0.14352	1384.47122
3642	6	1	18.5	346.57342	0.18034	0.02034	0.0	0.0	0.0	0.0	3.76608	0.14352	676.93726
3654	6	2	6.5	339.37679	0.17992	0.01992	0.0	0.0	0.0	0.0	3.96633	0.14352	597.60542
3655	6	2	7.5	741.12805	0.2035	0.0435	0.0	0.0	0.0	0.0	4.43631	0.14352	1268.75427
3656	6	2	8.5	1129.11408	0.22728	0.06628	0.00101	7.72274	0.01175	0.01095	4.33894	0.27607	2687.42815
3657	6	2	9.5	1447.01847	0.26605	0.08494	0.02111	21.58442	0.31532	0.22999	4.05891	0.54876	3094.05594
3658	6	2	10.5	1934.80248	0.3038	0.11357	0.03022	27.68353	0.75954	0.32922	4.13151	0.65302	4180.01709
3659	6	2	11.5	2300.7886	0.32521	0.13506	0.03016	28.10338	0.76674	0.32851	4.11254	0.65956	5010.79139
3660	6	2	12.5	2458.6116	0.33558	0.14432	0.03126	29.85166	0.90957	0.34053	4.25673	0.68587	5163.06744
3661	6	2	13.5	2235.60207	0.32127	0.13123	0.03004	27.83224	0.74637	0.32718	4.07643	0.65535	5079.36604
3662	6	2	14.5	1775.71457	0.2942	0.10423	0.02997	27.16451	0.73908	0.32646	4.08388	0.64482	4115.79139
3663	6	2	15.5	1236.10872	0.23362	0.07256	0.00106	8.20177	0.0194	0.01153	3.902	0.2853	3000.07384
3682	6	3	10.5	1488.42072	0.26427	0.08737	0.0169	20.20696	0.24295	0.1841	3.70549	0.52306	3669.74104
3683	6	3	11.5	1994.70318	0.30612	0.11709	0.02903	27.10181	0.74258	0.31624	3.89885	0.64382	4693.05929
3684	6	3	12.5	2315.76706	0.32682	0.13594	0.03088	29.16922	0.86381	0.33644	4.24269	0.67578	4833.37419
3685	6	3	13.5	2247.02763	0.32211	0.1319	0.03021	27.92918	0.74807	0.32903	4.11743	0.65686	5034.61604
3686	6	3	14.5	2006.9832	0.3089	0.11781	0.03109	28.07871	0.75366	0.33869	4.29394	0.65918	4344.02349
3687	6	3	15.5	1643.77558	0.28873	0.09649	0.03224	27.83347	0.7205	0.35121	4.60249	0.65537	3380.71515
3688	6	3	16.5	1166.15112	0.22983	0.06845	0.00138	8.95641	0.0189	0.01499	4.54487	0.3	2760.1469
3689	6	3	17.5	720.09018	0.20227	0.04227	0.0	0.0	0.0	0.0	4.23188	0.14352	1335.19021
3690	6	3	18.5	352.77579	0.18071	0.02071	0.0	0.0	0.0	0.0	3.77694	0.14352	694.08092
3706	6	4	10.5	1270.20242	0.23579	0.07456	0.00123	8.83347	0.02383	0.01341	3.49425	0.29759	3196.96674
3707	6	4	11.5	1557.10223	0.2703	0.0914	0.0189	21.14896	0.30857	0.20591	3.53933	0.54071	3978.50894
3709	6	4	13.5	1790.72672	0.29346	0.10512	0.02834	26.3505	0.71744	0.30873	3.74109	0.63169	4518.40824
3710	6	4	14.5	1695.30204	0.28841	0.09951	0.0289	26.19872	0.68303	0.31478	3.92806	0.6292	4135.13394
3711	6	4	15.5	1482.7868	0.2733	0.08704	0.02626	23.67439	0.45491	0.28606	4.23514	0.58634	3283.56744
3712	6	4	16.5	1050.08721	0.22176	0.06164	0.00012	0.0	0.00192	0.00129	4.10605	0.14352	2256.96307
3713	6	4	17.5	645.94709	0.19792	0.03792	0.0	0.0	0.0	0.0	3.98162	0.14352	1350.90872
3726	6	5	6.5	312.12188	0.17832	0.01832	0.0	0.0	0.0	0.0	3.62614	0.14352	610.84832
3727	6	5	7.5	699.63322	0.20107	0.04107	0.0	0.0	0.0	0.0	4.13445	0.14352	1289.71539
3728	6	5	8.5	1175.25977	0.23023	0.06899	0.00124	8.61502	0.01781	0.01354	4.44529	0.29333	2864.6405
3729	6	5	9.5	1704.75388	0.29129	0.10007	0.03122	27.38721	0.71516	0.34006	4.29953	0.64835	3423.74919
3730	6	5	10.5	2146.11129	0.31753	0.12598	0.03155	28.56952	0.76271	0.34371	4.41259	0.66672	4317.29954
3731	6	5	11.5	2502.11836	0.33879	0.14687	0.03191	30.23859	0.89722	0.34763	4.44612	0.69148	5037.91479
3732	6	5	12.5	2641.18106	0.34751	0.15504	0.03247	30.93833	0.90772	0.35373	4.6197	0.70145	5398.94725
3733	6	5	13.5	2367.27185	0.33006	0.13896	0.0311	28.95177	0.82278	0.33874	4.24553	0.67252	5164.51709
3734	6	5	14.5	1887.70168	0.30143	0.11081	0.03063	27.7082	0.75294	0.33361	4.18528	0.65341	4248.59174
3735	6	5	15.5	1253.56	0.23498	0.07358	0.0014	9.24942	0.02564	0.01521	3.9254	0.30575	3016.51709
3808	6	8	16.5	848.38917	0.2098	0.0498	0.0	0.0	0.0	0.0	3.87069	0.14352	1866.19197
3809	6	8	17.5	650.72512	0.1982	0.0382	0.0	0.0	0.0	0.0	3.97507	0.14352	1351.63346
3810	6	8	18.5	356.46478	0.18092	0.02092	0.0	0.0	0.0	0.0	3.75308	0.14352	694.08092
3832	6	9	16.5	847.2574	0.20973	0.04973	0.0	0.0	0.0	0.0	3.85184	0.14352	1910.94197
3833	6	9	17.5	647.52179	0.19801	0.03801	0.0	0.0	0.0	0.0	3.96548	0.14352	1309.12451
3834	6	9	18.5	360.26484	0.18115	0.02115	0.0	0.0	0.0	0.0	3.7038	0.14352	700.03708
3848	6	10	8.5	822.46739	0.20828	0.04828	0.0	0.0	0.0	0.0	3.652	0.14352	1820.71714
3849	6	10	9.5	1212.4893	0.23194	0.07117	0.00077	7.00413	0.0126	0.0084	3.70351	0.26237	2858.44244
3850	6	10	10.5	1478.25791	0.26254	0.08677	0.01577	19.75325	0.21711	0.17178	3.58453	0.51446	3710.00894
3851	6	10	11.5	1665.90923	0.28265	0.09779	0.02486	23.88888	0.52229	0.27082	3.57498	0.59009	4311.10149
3852	6	10	12.5	1715.18709	0.28843	0.10068	0.02775	25.83529	0.68518	0.30224	3.75059	0.62321	4321.51534
3853	6	10	13.5	1973.56426	0.30551	0.11585	0.02966	27.30241	0.73973	0.32314	3.98616	0.64701	4716.88394
3854	6	10	14.5	1999.10251	0.30883	0.11735	0.03148	28.24116	0.75435	0.34296	4.36084	0.66169	4268.06744
3855	6	10	15.5	1765.77185	0.29676	0.10365	0.03311	28.41361	0.7225	0.36071	4.7616	0.66434	3746.09655
3856	6	10	16.5	1189.75474	0.23128	0.06984	0.00144	9.17307	0.01987	0.01565	4.51439	0.30425	2731.84015
3857	6	10	17.5	653.03362	0.19833	0.03833	0.0	0.0	0.0	0.0	4.00888	0.14352	1339.72122
3871	6	11	7.5	716.06342	0.20203	0.04203	0.0	0.0	0.0	0.0	4.07835	0.14352	1343.41184
3872	6	11	8.5	1261.26055	0.24876	0.07404	0.01472	18.7113	0.13937	0.16037	4.81365	0.49445	3362.82225
3873	6	11	9.5	1823.35843	0.30073	0.10703	0.0337	28.77197	0.71982	0.36709	4.93403	0.6698	4010.2476
3874	6	11	10.5	2255.91568	0.32586	0.13242	0.03343	30.15604	0.81428	0.3642	4.89329	0.69029	4911.17935
3875	6	11	11.5	2573.13708	0.34381	0.15104	0.03277	30.88338	0.89436	0.35697	4.67389	0.70067	5337.754
3876	6	11	12.5	2652.7198	0.34877	0.15571	0.03306	31.28637	0.90016	0.3601	4.78189	0.70631	5531.7476
3877	6	11	13.5	2557.46996	0.34298	0.15012	0.03286	30.79357	0.88484	0.35797	4.70573	0.69941	5309.44725
3878	6	11	14.5	2266.55224	0.32662	0.13305	0.03358	30.52526	0.84553	0.36576	4.8721	0.69559	4933.55435
3879	6	11	15.5	1855.15027	0.30293	0.1089	0.03403	29.15093	0.73646	0.37069	5.00335	0.67551	4122.1226
3880	6	11	16.5	1366.34044	0.27229	0.0802	0.03209	25.57879	0.51695	0.34951	5.23461	0.61895	3877.44725
3881	6	11	17.5	866.02588	0.21084	0.05084	0.0	0.0	0.0	0.0	4.89778	0.14352	1493.3981
3882	6	11	18.5	422.32851	0.18479	0.02479	0.0	0.0	0.0	0.0	4.26338	0.14352	738.86425
3894	6	12	6.5	384.73802	0.18258	0.02258	0.0	0.0	0.0	0.0	3.91669	0.14352	682.53101
3895	6	12	7.5	789.79688	0.20636	0.04636	0.0	0.0	0.0	0.0	4.69255	0.14352	1381.5231
3896	6	12	8.5	1256.37477	0.24882	0.07375	0.01507	18.81654	0.14079	0.1642	4.96068	0.49648	3495.6226
3897	6	12	9.5	1606.94349	0.28583	0.09433	0.0315	27.29534	0.70301	0.34314	4.43785	0.6469	3246.33199
3898	6	12	10.5	1836.27266	0.2977	0.10779	0.02991	27.25988	0.74413	0.3258	4.04537	0.64633	4160.54139
3899	6	12	11.5	1879.37637	0.299	0.11032	0.02868	26.74769	0.73669	0.31241	3.79999	0.63813	4607.90824
3900	6	12	12.5	1717.67421	0.28828	0.10083	0.02746	25.61593	0.66717	0.2991	3.69934	0.61957	4415.59509
3901	6	12	13.5	1672.44574	0.28405	0.09817	0.02588	24.38477	0.55608	0.28188	3.66003	0.59869	4339.40824
3902	6	12	14.5	1501.5066	0.26841	0.08814	0.02027	21.42995	0.30962	0.22079	3.71862	0.54591	3866.63394
3903	6	12	15.5	1252.23823	0.23482	0.07351	0.00131	9.02684	0.0267	0.0143	3.96801	0.30138	2994.14209
3904	6	12	16.5	863.80246	0.21071	0.05071	0.0	0.0	0.0	0.0	3.84232	0.14352	1934.04179
3918	6	13	6.5	311.44226	0.17828	0.01828	0.0	0.0	0.0	0.0	3.58152	0.14352	600.40229
3919	6	13	7.5	629.76769	0.19697	0.03697	0.0	0.0	0.0	0.0	3.87647	0.14352	1244.43397
3920	6	13	8.5	952.67041	0.21592	0.05592	0.0	0.0	0.0	0.0	3.97408	0.14352	1978.79179
3921	6	13	9.5	1214.07366	0.23215	0.07127	0.00088	7.50074	0.01749	0.00962	3.81194	0.27182	2797.24902
3922	6	13	10.5	1493.66727	0.26409	0.08768	0.01641	20.05116	0.23519	0.17877	3.63487	0.52012	3736.86604
3923	6	13	11.5	1664.89127	0.28269	0.09773	0.02496	23.93482	0.52516	0.2719	3.59387	0.59089	4294.65824
3924	6	13	12.5	1711.73789	0.28821	0.10048	0.02773	25.80305	0.68286	0.30211	3.73265	0.62268	4336.50894
3925	6	13	13.5	1667.17652	0.28448	0.09786	0.02661	24.82905	0.59548	0.28989	3.74477	0.6063	4293.20859
3926	6	13	14.5	1500.89485	0.26904	0.0881	0.02094	21.69535	0.32767	0.22807	3.8676	0.55079	3803.99104
3927	6	13	15.5	1249.17356	0.23444	0.07333	0.00112	8.43462	0.02153	0.01218	3.90654	0.28982	3044.82384
3928	6	13	16.5	925.07783	0.2143	0.0543	0.0	0.0	0.0	0.0	3.95911	0.14352	1968.32912
3929	6	13	17.5	612.66194	0.19596	0.03596	0.0	0.0	0.0	0.0	3.81797	0.14352	1321.03684
3942	6	14	6.5	310.18802	0.17821	0.01821	0.0	0.0	0.0	0.0	3.57998	0.14352	597.60542
3943	6	14	7.5	715.09301	0.20198	0.04198	0.0	0.0	0.0	0.0	4.28251	0.14352	1250.02772
3944	6	14	8.5	1249.33667	0.24223	0.07334	0.00889	16.29626	0.07548	0.09684	4.74979	0.44698	3274.7719
3945	6	14	9.5	1784.98858	0.2982	0.10478	0.03342	28.54957	0.71634	0.3641	4.86551	0.66642	3855.07225
3946	6	14	10.5	2182.08608	0.32054	0.12809	0.03245	29.05936	0.76408	0.35346	4.64675	0.67413	4526.32225
3947	6	14	11.5	2390.78127	0.33212	0.14034	0.03178	29.85649	0.87916	0.34618	4.41262	0.68594	4833.37419
3948	6	14	12.5	2379.37922	0.33106	0.13967	0.03139	29.48233	0.86526	0.34199	4.30977	0.68044	5037.64849
3949	6	14	13.5	2225.88373	0.32098	0.13066	0.03032	27.90557	0.74423	0.33032	4.0917	0.65649	5074.88394
3950	6	14	14.5	1885.64099	0.30152	0.11069	0.03084	27.74883	0.75037	0.33591	4.20216	0.65404	4272.41639
3951	6	14	15.5	1483.00854	0.2735	0.08705	0.02644	23.73632	0.45641	0.28805	4.24541	0.58742	3305.94244
3952	6	14	16.5	1130.28617	0.22746	0.06635	0.00111	8.09544	0.0149	0.01212	4.46922	0.28325	2527.83727
3953	6	14	17.5	753.04564	0.2042	0.0442	0.0	0.0	0.0	0.0	4.15877	0.14352	1444.82425
3954	6	14	18.5	400.23152	0.18349	0.02349	0.0	0.0	0.0	0.0	3.87005	0.14352	765.67918
3966	6	15	6.5	382.04606	0.18243	0.02243	0.0	0.0	0.0	0.0	3.92007	0.14352	667.99081
3967	6	15	7.5	794.7337	0.20665	0.04665	0.0	0.0	0.0	0.0	4.79241	0.14352	1403.17327
3968	6	15	8.5	1321.2307	0.26593	0.07756	0.02837	23.65389	0.40156	0.30909	5.09231	0.58598	3787.94725
3969	6	15	9.5	1798.08886	0.29974	0.10555	0.0342	28.94244	0.71457	0.3725	5.09557	0.67238	4105.67935
3970	6	15	10.5	2215.62721	0.32312	0.13006	0.03307	29.48701	0.77063	0.3602	4.82082	0.6805	4748.6226
3971	6	15	11.5	2454.93667	0.33642	0.1441	0.03231	30.38603	0.8876	0.35199	4.56254	0.6936	5035.0155
3972	6	15	12.5	2451.17102	0.33558	0.14388	0.03169	29.95899	0.89352	0.34523	4.35887	0.68743	5118.31744
3973	6	15	13.5	2396.52228	0.33265	0.14068	0.03197	29.9441	0.87959	0.34826	4.45046	0.68721	4882.60629
3974	6	15	14.5	2153.57835	0.31884	0.12642	0.03243	28.93667	0.75875	0.35324	4.62471	0.67229	4454.71515
3975	6	15	15.5	1771.80129	0.29749	0.104	0.03348	28.62175	0.72317	0.36476	4.87429	0.66752	3811.7719
3976	6	15	16.5	1344.44926	0.26987	0.07892	0.03095	24.84606	0.46848	0.33712	5.21026	0.60659	3726.754
3977	6	15	17.5	868.25853	0.21097	0.05097	0.0	0.0	0.0	0.0	4.96468	0.14352	1504.5856
3978	6	15	18.5	453.72549	0.18663	0.02663	0.0	0.0	0.0	0.0	4.41671	0.14352	806.35166
4039	6	18	7.5	554.23249	0.19253	0.03253	0.0	0.0	0.0	0.0	3.69034	0.14352	1138.91092
4040	6	18	8.5	899.79744	0.21282	0.05282	0.0	0.0	0.0	0.0	3.87308	0.14352	1888.56697
4041	6	18	9.5	1220.11673	0.23286	0.07162	0.00124	8.75028	0.02433	0.01355	3.85384	0.29597	2812.24279
4042	6	18	10.5	1487.24293	0.26398	0.0873	0.01668	20.12226	0.23731	0.18174	3.63509	0.52146	3725.00254
4043	6	18	11.5	1675.59569	0.28369	0.09836	0.02534	24.14234	0.53994	0.27599	3.62797	0.5945	4305.16973
4044	6	18	12.5	1721.13107	0.28899	0.10103	0.02796	25.95821	0.69017	0.30463	3.77592	0.62524	4352.95219
4045	6	18	13.5	1682.83894	0.28487	0.09878	0.02609	24.52634	0.56682	0.28421	3.67327	0.60113	4379.67614
4046	6	18	14.5	1510.07163	0.26966	0.08864	0.02101	21.73928	0.33213	0.22891	3.73986	0.5516	3866.63394
4047	6	18	15.5	1253.60922	0.2345	0.07359	0.00091	7.69956	0.01729	0.00991	3.95034	0.27562	3022.44884
4048	6	18	16.5	1125.44142	0.22689	0.06606	0.00083	7.03067	0.01139	0.00903	4.30369	0.26288	2383.84942
4049	6	18	17.5	799.24313	0.20692	0.04692	0.0	0.0	0.0	0.0	4.55086	0.14352	1356.18222
4050	6	18	18.5	430.30563	0.18526	0.02526	0.0	0.0	0.0	0.0	4.26685	0.14352	755.6455
4069	6	19	13.5	1561.74718	0.2734	0.09167	0.02172	22.21818	0.3785	0.23663	3.70039	0.56034	4062.07719
4070	6	19	14.5	1615.29647	0.28244	0.09482	0.02762	25.02468	0.58681	0.30084	3.97799	0.60963	3932.30929
4071	6	19	15.5	1499.23457	0.27532	0.08801	0.02732	24.20269	0.49256	0.2976	4.26022	0.59555	3290.94884
4072	6	19	16.5	1207.0371	0.23233	0.07085	0.00148	9.32883	0.02309	0.01611	4.59608	0.30731	2760.1469
4073	6	19	17.5	829.18155	0.20867	0.04867	0.0	0.0	0.0	0.0	4.54202	0.14352	1410.53684
4074	6	19	18.5	431.47716	0.18533	0.02533	0.0	0.0	0.0	0.0	4.29019	0.14352	755.6455
4110	6	21	6.5	376.74943	0.18212	0.02212	0.0	0.0	0.0	0.0	3.919	0.14352	666.11217
4111	6	21	7.5	785.29153	0.2061	0.0461	0.0	0.0	0.0	0.0	4.76966	0.14352	1389.0199
4112	6	21	8.5	1307.42952	0.26307	0.07675	0.02633	22.78749	0.34325	0.28677	5.04821	0.57061	3726.754
4113	6	21	9.5	1772.31346	0.29788	0.10403	0.03384	28.72966	0.71515	0.36863	4.98139	0.66916	3920.7476
4114	6	21	10.5	2175.88002	0.32044	0.12772	0.03272	29.1873	0.76389	0.35638	4.71972	0.67605	4615.82225
4115	6	21	11.5	2441.87197	0.33553	0.14334	0.03219	30.20442	0.88424	0.35069	4.49826	0.69099	4909.59655
4116	6	21	12.5	2499.29306	0.33874	0.14671	0.03203	30.25309	0.89345	0.34892	4.45706	0.69169	5060.28979
4117	6	21	13.5	2447.77274	0.33592	0.14368	0.03224	30.14925	0.87914	0.35118	4.49961	0.69019	4976.72155
4118	6	21	14.5	2227.42247	0.32369	0.13075	0.03294	29.34916	0.76893	0.35879	4.75902	0.67846	4772.44725
4119	6	21	15.5	1844.28461	0.30266	0.10826	0.0344	29.29099	0.73372	0.37476	5.11392	0.6776	4239.92935
4120	6	21	16.5	1398.99274	0.27636	0.08212	0.03424	27.276	0.61543	0.37296	5.32723	0.64659	3904.30435
4121	6	21	17.5	915.77621	0.21376	0.05376	0.0	0.0	0.0	0.0	5.10234	0.14352	1601.5824
4122	6	21	18.5	470.65495	0.18763	0.02763	0.0	0.0	0.0	0.0	4.48153	0.14352	839.91416
4123	6	21	19.5	146.07656	0.16857	0.00857	0.0	0.0	0.0	0.0	3.41917	0.14352	266.82817
4135	6	22	7.5	547.21128	0.19212	0.03212	0.0	0.0	0.0	0.0	3.68532	0.14352	1129.20636
4136	6	22	8.5	875.1001	0.21137	0.05137	0.0	0.0	0.0	0.0	3.76972	0.14352	1847.50767
4137	6	22	9.5	1205.13498	0.23125	0.07074	0.00051	5.53405	0.00875	0.00558	3.7628	0.23505	2827.00542
4138	6	22	10.5	1367.33359	0.24209	0.08026	0.00182	10.50143	0.03716	0.01988	3.74484	0.33056	3375.96674
4140	6	22	12.5	1280.28534	0.2365	0.07515	0.00135	9.17537	0.02446	0.01465	3.48874	0.3043	3287.91639
4158	6	23	6.5	308.65821	0.17812	0.01812	0.0	0.0	0.0	0.0	3.62275	0.14352	594.06707
4159	6	23	7.5	702.60465	0.20124	0.04124	0.0	0.0	0.0	0.0	4.25229	0.14352	1238.4779
4160	6	23	8.5	1223.54948	0.23311	0.07182	0.00129	8.85684	0.01762	0.014	4.74268	0.29805	3228.57225
4161	6	23	9.5	1753.58211	0.29667	0.10294	0.03373	28.68884	0.71745	0.36744	4.95804	0.66854	3832.69725
4162	6	23	10.5	2125.43052	0.31718	0.12476	0.03242	28.93813	0.76054	0.35314	4.6299	0.67231	4371.1469
4163	6	23	11.5	2302.86119	0.32618	0.13518	0.03101	28.5179	0.77295	0.33776	4.27862	0.66594	4896.01709
4164	6	23	12.5	2277.16295	0.32391	0.13367	0.03024	27.96213	0.74552	0.32942	4.10509	0.65737	5140.55929
4165	6	23	13.5	1967.17792	0.30498	0.11547	0.0295	27.23677	0.74039	0.32139	3.96284	0.64597	4739.25894
4166	6	23	14.5	1494.26746	0.26859	0.08771	0.02088	21.64047	0.3208	0.22746	3.88192	0.54979	3736.86604
4168	6	23	16.5	869.06764	0.21101	0.05101	0.0	0.0	0.0	0.0	3.88413	0.14352	1900.47929
4169	6	23	17.5	668.34262	0.19923	0.03923	0.0	0.0	0.0	0.0	4.00125	0.14352	1353.87451
4170	6	23	18.5	386.40678	0.18268	0.02268	0.0	0.0	0.0	0.0	3.73774	0.14352	765.67918
4183	6	24	7.5	627.67087	0.19684	0.03684	0.0	0.0	0.0	0.0	3.9626	0.14352	1191.46235
4184	6	24	8.5	1115.06683	0.22593	0.06545	0.00048	5.06135	0.00598	0.00522	4.31665	0.22648	2561.39977
4185	6	24	9.5	1630.68452	0.28778	0.09572	0.03206	27.56877	0.70486	0.34925	4.52165	0.65122	3319.5219
4186	6	24	10.5	2122.46898	0.31675	0.12459	0.03217	28.7983	0.75925	0.35039	4.55279	0.6702	4451.68269
4187	6	24	11.5	2477.0515	0.33791	0.1454	0.03251	30.48768	0.88432	0.35411	4.60254	0.69506	5108.07225
4188	6	24	12.5	2621.33176	0.34649	0.15387	0.03262	30.8141	0.89479	0.35532	4.61533	0.6997	5378.0219
4189	6	24	13.5	2559.32237	0.34331	0.15023	0.03308	30.90887	0.8817	0.36034	4.75848	0.70103	5375.1226
4190	6	24	14.5	2292.4288	0.32853	0.13457	0.03397	30.90465	0.85275	0.37002	4.97928	0.70097	5043.9797
4191	6	24	15.5	1876.39027	0.30509	0.11014	0.03495	29.83193	0.74818	0.38068	5.26149	0.68558	4395.1047
4192	6	24	16.5	1401.58118	0.27738	0.08227	0.03511	27.99685	0.64435	0.38245	5.49252	0.65791	4053.54795
4193	6	24	17.5	913.15168	0.2136	0.0536	0.0	0.0	0.0	0.0	5.25007	0.14352	1603.82345
4194	6	24	18.5	478.365	0.18808	0.02808	0.0	0.0	0.0	0.0	4.42899	0.14352	851.10166
4195	6	24	19.5	147.83905	0.16868	0.00868	0.0	0.0	0.0	0.0	3.43553	0.14352	269.62505
4206	6	25	6.5	361.21695	0.1812	0.0212	0.0	0.0	0.0	0.0	3.96956	0.14352	635.10196
4207	6	25	7.5	779.10549	0.20573	0.04573	0.0	0.0	0.0	0.0	4.73082	0.14352	1370.3356
4208	6	25	8.5	1291.5657	0.26271	0.07581	0.0269	22.91408	0.34557	0.29301	5.19524	0.57287	3859.55435
4209	6	25	9.5	1765.13968	0.29801	0.10361	0.0344	28.9892	0.71279	0.37468	5.16282	0.67308	4060.92935
4210	6	25	10.5	2198.44853	0.32246	0.12905	0.03341	29.6552	0.76984	0.36398	4.93295	0.68299	4799.30435
4211	6	25	11.5	2479.82247	0.33836	0.14557	0.03279	30.74759	0.88843	0.35722	4.68425	0.69875	5136.379
4212	6	25	12.5	2558.86889	0.34274	0.15021	0.03253	30.71557	0.89475	0.35439	4.60523	0.6983	5243.7719
4213	6	25	13.5	2510.89564	0.34023	0.14739	0.03284	30.69378	0.8813	0.35776	4.69477	0.69799	5219.94725
4214	6	25	14.5	2283.36895	0.32785	0.13403	0.03381	30.77476	0.85152	0.36833	4.9348	0.69914	4978.30435
4215	6	25	15.5	1870.64116	0.30465	0.10981	0.03485	29.74859	0.74781	0.3796	5.22684	0.68436	4351.80435
4216	6	25	16.5	1405.4314	0.27734	0.0825	0.03484	27.83432	0.64067	0.37955	5.41243	0.65538	4016.17935
4217	6	25	17.5	912.48358	0.21356	0.05356	0.0	0.0	0.0	0.0	5.22865	0.14352	1603.82345
4218	6	25	18.5	478.20279	0.18807	0.02807	0.0	0.0	0.0	0.0	4.43278	0.14352	851.10166
4219	6	25	19.5	147.54269	0.16866	0.00866	0.0	0.0	0.0	0.0	3.44319	0.14352	274.75746
4230	6	26	6.5	354.48441	0.18081	0.02081	0.0	0.0	0.0	0.0	3.90939	0.14352	627.99194
4231	6	26	7.5	721.38125	0.20235	0.04235	0.0	0.0	0.0	0.0	4.4434	0.14352	1248.22462
4232	6	26	8.5	982.39589	0.21767	0.05767	0.0	0.0	0.0	0.0	4.00218	0.14352	1970.70332
4233	6	26	9.5	893.23808	0.21271	0.05243	0.00028	2.48732	0.00351	0.00304	3.52829	0.18212	2099.61324
4240	6	26	16.5	866.83085	0.21088	0.05088	0.0	0.0	0.0	0.0	3.87163	0.14352	1923.57912
4241	6	26	17.5	674.44502	0.19959	0.03959	0.0	0.0	0.0	0.0	3.99276	0.14352	1376.97434
4242	6	26	18.5	387.13308	0.18272	0.02272	0.0	0.0	0.0	0.0	3.74745	0.14352	750.74329
4258	6	27	10.5	1473.23372	0.26361	0.08648	0.01713	20.24714	0.24147	0.18658	3.7813	0.52382	3602.61604
4259	6	27	11.5	1971.51637	0.30516	0.11573	0.02943	27.22626	0.74259	0.32063	3.95799	0.6458	4625.93429
4260	6	27	12.5	2297.48983	0.32606	0.13486	0.0312	29.04189	0.82948	0.33984	4.31699	0.67387	4816.93094
4261	6	27	13.5	2078.54585	0.312	0.12201	0.02999	27.5907	0.74179	0.32666	4.05679	0.65156	4851.13394
4262	6	27	14.5	1712.84497	0.28974	0.10054	0.0292	26.42683	0.69502	0.31809	3.96913	0.63293	4200.80929
4263	6	27	15.5	1270.76958	0.23576	0.07459	0.00117	8.63947	0.024	0.0127	3.93024	0.29381	3083.64209
4264	6	27	16.5	963.27719	0.21659	0.05654	4e-05	0.0	0.00058	0.00044	4.05683	0.14352	2068.29179
4265	6	27	17.5	632.34224	0.19712	0.03712	0.0	0.0	0.0	0.0	3.86515	0.14352	1342.68701
4283	6	28	11.5	1393.231	0.24333	0.08178	0.00155	9.95426	0.03289	0.01687	3.52149	0.31968	3580.24104
4284	6	28	12.5	1717.82224	0.28838	0.10084	0.02754	25.6665	0.67133	0.30003	3.69328	0.62041	4382.70859
4285	6	28	13.5	1548.33177	0.27162	0.09089	0.02074	21.78284	0.34458	0.22588	3.62063	0.5524	4017.32719
4286	6	28	14.5	1273.9551	0.23616	0.07478	0.00137	9.23918	0.02475	0.01498	3.64971	0.30555	3286.46674
4303	6	29	7.5	665.62887	0.19907	0.03907	0.0	0.0	0.0	0.0	4.10143	0.14352	1243.70923
4304	6	29	8.5	1209.50094	0.23217	0.071	0.00117	8.48881	0.01649	0.01276	4.63506	0.29087	3095.7719
4305	6	29	9.5	1759.53595	0.29663	0.10328	0.03335	28.45686	0.71461	0.36328	4.83371	0.665	3765.57225
4306	6	29	10.5	2097.16931	0.31517	0.1231	0.03207	28.71896	0.75939	0.34931	4.52999	0.669	4275.71515
4307	6	29	11.5	2212.46434	0.32008	0.12987	0.03021	27.91766	0.75343	0.3291	4.08593	0.65668	4967.49104
4308	6	29	12.5	2041.5566	0.30955	0.11984	0.02971	27.45852	0.74191	0.32364	4.04766	0.64948	4743.74104
4309	6	29	13.5	2073.79794	0.31161	0.12173	0.02988	27.53127	0.74185	0.32546	4.01968	0.65063	4873.50894
4310	6	29	14.5	1962.65872	0.30609	0.11521	0.03089	27.92007	0.75508	0.33644	4.20906	0.65672	4399.28499
4311	6	29	15.5	1673.31273	0.29067	0.09822	0.03244	27.9265	0.71765	0.35341	4.62497	0.65682	3432.84655
4312	6	29	16.5	1179.78772	0.2306	0.06925	0.00135	8.92728	0.02089	0.0147	4.45158	0.29943	2572.58727
4313	6	29	17.5	713.79494	0.2019	0.0419	0.0	0.0	0.0	0.0	4.12924	0.14352	1399.34934
4326	6	30	6.5	341.8614	0.18007	0.02007	0.0	0.0	0.0	0.0	3.85029	0.14352	611.58979
4327	6	30	7.5	697.85114	0.20096	0.04096	0.0	0.0	0.0	0.0	4.38985	0.14352	1201.99168
4328	6	30	8.5	1095.48575	0.22496	0.06431	0.00066	6.11136	0.00827	0.00714	4.44769	0.24566	2716.57512
4329	6	30	9.5	1418.73809	0.26341	0.08328	0.02013	21.12357	0.27995	0.21924	4.10194	0.54024	3004.55594
4330	6	30	10.5	1816.44486	0.29654	0.10663	0.02991	27.18731	0.7377	0.32584	4.0571	0.64518	4093.41639
4331	6	30	11.5	2150.45726	0.3161	0.12623	0.02987	27.66689	0.74695	0.32535	4.04031	0.65276	4887.05289
4332	6	30	12.5	2300.08884	0.32516	0.13502	0.03015	27.94691	0.74581	0.32839	4.0799	0.65714	5215.06569
4333	6	30	13.5	2303.60673	0.32576	0.13522	0.03054	28.11039	0.74605	0.33267	4.15526	0.65967	5168.86604
4334	6	30	14.5	2128.65518	0.31698	0.12495	0.03203	28.68551	0.75663	0.34894	4.52034	0.66849	4366.66479
4335	6	30	15.5	1809.79732	0.29972	0.10624	0.03348	28.79927	0.73355	0.36475	4.87836	0.67021	3856.5219
4336	6	30	16.5	1376.6056	0.27308	0.08081	0.03227	25.77302	0.53206	0.35157	5.20671	0.62218	3764.1226
4337	6	30	17.5	889.95182	0.21224	0.05224	0.0	0.0	0.0	0.0	5.02155	0.14352	1545.6449
4338	6	30	18.5	470.55849	0.18762	0.02762	0.0	0.0	0.0	0.0	4.47974	0.14352	839.55175
4339	6	30	19.5	153.05566	0.16898	0.00898	0.0	0.0	0.0	0.0	3.43783	0.14352	282.86796
4350	7	1	6.5	337.64386	0.17982	0.01982	0.0	0.0	0.0	0.0	3.84664	0.14352	601.32492
4351	7	1	7.5	754.22662	0.20427	0.04427	0.0	0.0	0.0	0.0	4.61657	0.14352	1320.94337
4352	7	1	8.5	1273.9471	0.25614	0.07478	0.02136	20.95186	0.23182	0.23268	4.99836	0.53704	3629.8726
4353	7	1	9.5	1766.21125	0.2976	0.10368	0.03392	28.71483	0.7109	0.36949	5.00981	0.66893	3971.42935
4354	7	1	10.5	2216.43636	0.32309	0.1301	0.03299	29.43366	0.76917	0.35932	4.798	0.67971	4727.69725
4355	7	1	11.5	2524.28068	0.34097	0.14818	0.03279	30.81204	0.88936	0.35722	4.69926	0.69967	5225.879
4356	7	1	12.5	2633.68801	0.34751	0.1546	0.03291	31.13761	0.89869	0.35849	4.73765	0.70424	5470.55435
4357	7	1	13.5	2553.76085	0.34266	0.14991	0.03276	30.7276	0.8861	0.35683	4.6715	0.69847	5287.07225
4358	7	1	14.5	2286.87321	0.32777	0.13424	0.03353	30.60807	0.85406	0.36525	4.85486	0.69677	4927.6226
4359	7	1	15.5	1886.7688	0.30488	0.11075	0.03412	29.36707	0.74788	0.37172	5.00745	0.67873	4172.80435
4360	7	1	16.5	1400.12536	0.27585	0.08219	0.03366	26.85909	0.59669	0.36666	5.26036	0.63993	3861.004
4361	7	1	17.5	893.48532	0.21245	0.05245	0.0	0.0	0.0	0.0	4.91377	0.14352	1538.1481
4362	7	1	18.5	441.40196	0.18591	0.02591	0.0	0.0	0.0	0.0	4.28805	0.14352	772.78916
4374	7	2	6.5	273.3943	0.17605	0.01605	0.0	0.0	0.0	0.0	3.47346	0.14352	541.3055
4375	7	2	7.5	604.75848	0.1955	0.0355	0.0	0.0	0.0	0.0	3.92185	0.14352	1166.87967
4376	7	2	8.5	999.86118	0.21869	0.05869	0.0	0.0	0.0	0.0	3.99271	0.14352	1979.64977
4377	7	2	9.5	1387.17497	0.25762	0.08143	0.01619	19.64609	0.19989	0.17636	4.07166	0.51241	2952.42454
4378	7	2	10.5	1929.66634	0.30398	0.11327	0.0307	27.80227	0.75102	0.33447	4.21801	0.65488	4112.89209
4379	7	2	11.5	2344.34334	0.32872	0.13761	0.03111	28.90005	0.81255	0.33886	4.2663	0.67174	4963.14209
4380	7	2	12.5	2545.45928	0.34129	0.14942	0.03187	30.20575	0.8985	0.3472	4.38796	0.69101	5212.29954
4381	7	2	13.5	2474.58419	0.33747	0.14526	0.03221	30.26524	0.8871	0.35093	4.50815	0.69187	5014.09015
4382	7	2	14.5	2184.54105	0.3205	0.12823	0.03226	28.8961	0.76017	0.35146	4.5872	0.67168	4478.53979
4383	7	2	15.5	1762.81308	0.29644	0.10348	0.03296	28.3314	0.72222	0.35903	4.73634	0.66308	3716.34015
4384	7	2	16.5	1157.20515	0.22904	0.06793	0.00111	8.16285	0.01581	0.0121	4.34868	0.28455	2446.5589
4424	7	4	8.5	835.17151	0.20902	0.04902	0.0	0.0	0.0	0.0	3.73841	0.14352	1742.40464
4425	7	4	9.5	1395.46144	0.25747	0.08191	0.01555	19.46596	0.19672	0.16944	4.04014	0.50897	2998.62419
4426	7	4	10.5	1873.44686	0.30036	0.10997	0.03039	27.62984	0.7554	0.33107	4.1514	0.65218	4047.21674
4427	7	4	11.5	2248.79888	0.32239	0.132	0.03039	28.07129	0.75537	0.33102	4.16642	0.65907	4919.84174
4428	7	4	12.5	2448.95274	0.33478	0.14375	0.03102	29.35943	0.87118	0.33796	4.19219	0.67861	5324.04139
4429	7	4	13.5	2380.51317	0.33145	0.13974	0.03172	29.80547	0.8825	0.34549	4.38278	0.68519	4904.98129
4430	7	4	14.5	2147.51243	0.31812	0.12606	0.03206	28.74275	0.7582	0.34923	4.54578	0.66936	4389.03979
4431	7	4	15.5	1766.62444	0.29647	0.1037	0.03277	28.29351	0.72604	0.35699	4.68879	0.6625	3717.78979
4432	7	4	16.5	1345.99953	0.26868	0.07901	0.02967	24.27425	0.43558	0.32315	5.102	0.59678	3586.57225
4433	7	4	17.5	878.75064	0.21158	0.05158	0.0	0.0	0.0	0.0	4.75478	0.14352	1501.61972
4434	7	4	18.5	438.60985	0.18575	0.02575	0.0	0.0	0.0	0.0	4.21754	0.14352	761.23925
4446	7	5	6.5	330.4518	0.1794	0.0194	0.0	0.0	0.0	0.0	3.79906	0.14352	600.40229
4447	7	5	7.5	741.5552	0.20353	0.04353	0.0	0.0	0.0	0.0	4.59356	0.14352	1296.72302
4448	7	5	8.5	1262.68697	0.25265	0.07412	0.01853	19.99413	0.18573	0.20181	4.98136	0.51904	3629.8726
4449	7	5	9.5	1757.20923	0.29694	0.10315	0.03379	28.66911	0.71287	0.36809	4.99222	0.66824	3965.4976
4450	7	5	10.5	2211.3387	0.32269	0.12981	0.03288	29.40096	0.77094	0.35821	4.78345	0.67923	4711.254
4451	7	5	11.5	2526.36124	0.341	0.1483	0.0327	30.84877	0.89674	0.3562	4.67567	0.70019	5219.94725
4452	7	5	12.5	2640.8462	0.34787	0.15502	0.03286	31.16948	0.90296	0.3579	4.73148	0.70469	5464.6226
4453	7	5	13.5	2567.141	0.34332	0.15069	0.03263	30.7277	0.89149	0.35549	4.65177	0.69847	5287.07225
4454	7	5	14.5	2302.61523	0.3288	0.13516	0.03364	30.84909	0.8636	0.36646	4.9075	0.70019	5023.05435
4455	7	5	15.5	1883.89439	0.30489	0.11058	0.03431	29.54988	0.75295	0.3737	5.09867	0.68143	4284.67935
4456	7	5	16.5	1397.91678	0.27597	0.08206	0.03391	27.0613	0.60683	0.36942	5.30744	0.64317	3944.57225
4457	7	5	17.5	881.55741	0.21175	0.05175	0.0	0.0	0.0	0.0	4.97819	0.14352	1523.2699
4458	7	5	18.5	443.9474	0.18606	0.02606	0.0	0.0	0.0	0.0	4.17769	0.14352	767.19541
4470	7	6	6.5	312.99679	0.17837	0.01837	0.0	0.0	0.0	0.0	3.83985	0.14352	560.88363
4471	7	6	7.5	733.50161	0.20306	0.04306	0.0	0.0	0.0	0.0	4.46587	0.14352	1263.52293
4472	7	6	8.5	1198.3846	0.23172	0.07035	0.00138	9.0384	0.01754	0.015	4.76895	0.30161	3318.07225
4473	7	6	9.5	1628.89796	0.28782	0.09562	0.03221	27.67929	0.70766	0.35082	4.5891	0.65296	3364.2719
4474	7	6	10.5	1919.61273	0.30332	0.11268	0.03063	27.80905	0.7554	0.33371	4.21902	0.65499	4066.69244
4475	7	6	11.5	1930.33106	0.30232	0.11331	0.02901	26.9694	0.73868	0.31597	3.87623	0.6417	4605.00894
4476	7	6	12.5	1686.85014	0.28545	0.09902	0.02643	24.86572	0.60752	0.28789	3.66968	0.60693	4337.95859
4477	7	6	13.5	1588.02311	0.27567	0.09322	0.02246	22.58838	0.41018	0.24463	3.60844	0.56703	4130.65184
4478	7	6	14.5	1378.36721	0.2427	0.08091	0.00179	10.45151	0.0356	0.0195	3.67392	0.32956	3550.48464
4494	7	7	6.5	315.72447	0.17853	0.01853	0.0	0.0	0.0	0.0	3.80373	0.14352	569.45546
4495	7	7	7.5	732.995	0.20303	0.04303	0.0	0.0	0.0	0.0	4.51661	0.14352	1270.59962
4496	7	7	8.5	1242.16707	0.24577	0.07292	0.01286	17.96194	0.11198	0.14004	5.01961	0.47987	3637.254
4497	7	7	9.5	1740.65557	0.29589	0.10218	0.03371	28.61328	0.71312	0.36726	4.98931	0.66739	3905.754
4498	7	7	10.5	2189.74915	0.32147	0.12854	0.03293	29.41772	0.7721	0.35869	4.81405	0.67948	4681.4976
4499	7	7	11.5	2508.13265	0.33971	0.14723	0.03248	30.69564	0.89831	0.35384	4.61674	0.69802	5130.44725
4500	7	7	12.5	2629.64365	0.34701	0.15436	0.03265	31.04167	0.90568	0.35566	4.67551	0.7029	5403.42935
4501	7	7	13.5	2554.75608	0.34247	0.14996	0.03251	30.67361	0.89489	0.35414	4.61714	0.69771	5257.31585
4502	7	7	14.5	2303.3583	0.32867	0.13521	0.03347	30.7797	0.8674	0.36455	4.8594	0.69921	4999.2297
4503	7	7	15.5	1873.25784	0.30416	0.10996	0.0342	29.47396	0.75341	0.37254	5.06172	0.68031	4254.92295
4504	7	7	16.5	1396.35164	0.27547	0.08197	0.03351	26.75956	0.59224	0.365	5.27559	0.63832	3899.82225
4505	7	7	17.5	880.05722	0.21166	0.05166	0.0	0.0	0.0	0.0	4.96678	0.14352	1515.04827
4506	7	7	18.5	442.93432	0.186	0.026	0.0	0.0	0.0	0.0	4.19735	0.14352	767.19541
4518	7	8	6.5	312.66118	0.17835	0.01835	0.0	0.0	0.0	0.0	3.79359	0.14352	567.40005
4519	7	8	7.5	733.24508	0.20304	0.04304	0.0	0.0	0.0	0.0	4.50152	0.14352	1265.00587
4520	7	8	8.5	1247.22824	0.24611	0.07321	0.0129	17.99154	0.11276	0.14047	5.01569	0.48045	3696.9976
4521	7	8	9.5	1730.93202	0.29546	0.10161	0.03385	28.68732	0.71353	0.36877	5.04975	0.66852	3993.80435
4522	7	8	10.5	2196.37845	0.3218	0.12893	0.03288	29.42416	0.77338	0.35814	4.81502	0.67957	4732.17935
4523	7	8	11.5	2521.35364	0.34053	0.148	0.03252	30.80135	0.90205	0.3543	4.64037	0.69952	5196.1226
4524	7	8	12.5	2626.56632	0.34656	0.15418	0.03239	30.85941	0.90704	0.35278	4.60477	0.70034	5376.57225
4525	7	8	13.5	2547.5867	0.34207	0.14954	0.03252	30.71569	0.89678	0.35429	4.64	0.6983	5248.254
4526	7	8	14.5	2282.3117	0.32737	0.13397	0.03339	30.7061	0.86741	0.36377	4.83806	0.69817	4905.2476
4527	7	8	15.5	1875.46841	0.30421	0.11009	0.03412	29.4624	0.75462	0.37167	5.05643	0.68014	4256.3726
4528	7	8	16.5	1395.60643	0.27521	0.08192	0.03329	26.59026	0.58305	0.36265	5.2593	0.63559	3898.3726
4529	7	8	17.5	876.66174	0.21146	0.05146	0.0	0.0	0.0	0.0	4.95583	0.14352	1512.0824
4530	7	8	18.5	442.57991	0.18598	0.02598	0.0	0.0	0.0	0.0	4.18181	0.14352	771.27293
4542	7	9	6.5	311.35244	0.17828	0.01828	0.0	0.0	0.0	0.0	3.78263	0.14352	574.30774
4543	7	9	7.5	732.99398	0.20303	0.04303	0.0	0.0	0.0	0.0	4.50245	0.14352	1263.16052
4544	7	9	8.5	1243.00834	0.24443	0.07296	0.01147	17.41963	0.09763	0.12495	5.00684	0.46923	3682.004
4545	7	9	9.5	1731.371	0.2955	0.10163	0.03386	28.70425	0.71427	0.3689	5.06112	0.66877	4016.17935
4546	7	9	10.5	2191.1193	0.32148	0.12862	0.03286	29.40865	0.77398	0.35792	4.80795	0.67934	4709.80435
4547	7	9	11.5	2524.07482	0.34064	0.14816	0.03248	30.80093	0.90391	0.35381	4.63213	0.69951	5197.57225
4548	7	9	12.5	2626.49582	0.34649	0.15418	0.03232	30.83589	0.9087	0.35205	4.59039	0.7	5375.1226
4549	7	9	13.5	2547.55081	0.34203	0.14954	0.03249	30.70606	0.89703	0.35389	4.63973	0.69817	5242.32225
4550	7	9	14.5	2281.44039	0.32723	0.13392	0.03331	30.66689	0.86881	0.36282	4.82045	0.69761	4888.80435
4551	7	9	15.5	1869.70606	0.30378	0.10975	0.03403	29.4126	0.75551	0.37065	5.03314	0.6794	4217.55435
4552	7	9	16.5	1390.88384	0.27458	0.08164	0.03294	26.321	0.56801	0.35881	5.23207	0.6312	3883.379
4553	7	9	17.5	880.00775	0.21166	0.05166	0.0	0.0	0.0	0.0	4.90782	0.14352	1503.86077
4554	7	9	18.5	439.06385	0.18577	0.02577	0.0	0.0	0.0	0.0	4.17386	0.14352	782.82285
4567	7	10	7.5	528.80595	0.19104	0.03104	0.0	0.0	0.0	0.0	3.73732	0.14352	1100.8752
4568	7	10	8.5	1053.80263	0.22224	0.06186	0.00038	4.06194	0.00419	0.00413	4.1666	0.20878	2415.96227
4569	7	10	9.5	1617.26096	0.28699	0.09493	0.03206	27.6236	0.70862	0.34924	4.5951	0.65208	3386.6469
4570	7	10	10.5	2113.70862	0.31591	0.12407	0.03183	28.67839	0.76232	0.34674	4.52595	0.66838	4298.09015
4571	7	10	11.5	2458.43547	0.3366	0.14431	0.03229	30.58443	0.90161	0.35171	4.59588	0.69644	5039.4976
4572	7	10	12.5	2580.4202	0.34435	0.15147	0.03288	31.30762	0.91023	0.35814	4.79753	0.70661	5349.8483
4573	7	10	13.5	2528.946	0.34122	0.14845	0.03277	30.96029	0.8987	0.357	4.76079	0.70176	5246.80435
4574	7	10	14.5	2256.46871	0.32611	0.13245	0.03366	30.98185	0.87133	0.36666	4.96926	0.70206	4997.78005
4575	7	10	15.5	1858.6658	0.30345	0.1091	0.03435	29.63149	0.75734	0.37419	5.15778	0.68264	4299.67295
4576	7	10	16.5	1364.35007	0.27341	0.08009	0.03332	26.38133	0.56206	0.363	5.42341	0.63219	3987.8726
4577	7	10	17.5	853.91738	0.21012	0.05012	0.0	0.0	0.0	0.0	4.9849	0.14352	1470.29827
4578	7	10	18.5	426.67914	0.18505	0.02505	0.0	0.0	0.0	0.0	4.16691	0.14352	765.67918
4591	7	11	7.5	600.98905	0.19528	0.03528	0.0	0.0	0.0	0.0	3.98268	0.14352	1184.02333
4592	7	11	8.5	1138.78334	0.22803	0.06685	0.00118	8.32958	0.01509	0.01286	4.51667	0.28778	2960.07225
4593	7	11	9.5	1685.1369	0.29171	0.09892	0.03279	28.09939	0.71335	0.3572	4.7539	0.6595	3632.7719
4594	7	11	10.5	2141.21429	0.31827	0.12569	0.03258	29.18991	0.76982	0.35494	4.77002	0.67609	4547.2476
4595	7	11	11.5	2469.23359	0.3376	0.14494	0.03266	30.93387	0.90418	0.35576	4.72663	0.70138	5111.1047
4596	7	11	12.5	2580.1363	0.34425	0.15145	0.0328	31.27124	0.91231	0.35729	4.77159	0.7061	5334.8547
4597	7	11	13.5	2515.74858	0.33974	0.14767	0.03206	30.42467	0.90083	0.34926	4.52836	0.69416	5124.5155
4598	7	11	14.5	2222.80775	0.32254	0.13048	0.03206	28.92948	0.77075	0.34929	4.55889	0.67218	4566.59015
4599	7	11	15.5	1768.9582	0.29622	0.10384	0.03238	28.17297	0.73079	0.35273	4.61628	0.66064	3656.59655
4600	7	11	16.5	1271.82285	0.24361	0.07466	0.00896	16.42888	0.08958	0.09759	4.57853	0.44962	2962.97155
4601	7	11	17.5	763.80861	0.20484	0.04484	0.0	0.0	0.0	0.0	4.27844	0.14352	1474.69604
4602	7	11	18.5	360.61728	0.18117	0.02117	0.0	0.0	0.0	0.0	3.7741	0.14352	726.52293
4615	7	12	7.5	552.70596	0.19244	0.03244	0.0	0.0	0.0	0.0	3.76424	0.14352	1150.09842
4616	7	12	8.5	1024.21166	0.22055	0.06012	0.00042	4.37319	0.00468	0.00462	4.09277	0.21423	2292.89977
4617	7	12	9.5	1508.4078	0.2763	0.08854	0.02776	24.52546	0.52484	0.30235	4.28614	0.60111	3001.65664
4618	7	12	10.5	2053.31398	0.31165	0.12053	0.03112	28.26145	0.76115	0.33896	4.34515	0.662	4160.67454
4619	7	12	11.5	2449.09891	0.3354	0.14376	0.03163	30.07215	0.90386	0.3446	4.36556	0.68907	4888.6712
4620	7	12	12.5	2616.60142	0.34548	0.15359	0.03188	30.56317	0.91403	0.34732	4.46434	0.69613	5281.1405
4621	7	12	13.5	2555.32453	0.34236	0.15	0.03236	30.7036	0.90328	0.35249	4.61054	0.69813	5240.8726
4622	7	12	14.5	2285.66925	0.3273	0.13417	0.03313	30.6545	0.87634	0.36087	4.7821	0.69743	4911.17935
4623	7	12	15.5	1878.01747	0.30418	0.11024	0.03394	29.422	0.75788	0.36975	5.02617	0.67954	4299.67295
4624	7	12	16.5	1385.24918	0.27355	0.08131	0.03223	25.85097	0.54063	0.35114	5.19646	0.62347	3861.004
4625	7	12	17.5	868.11136	0.21096	0.05096	0.0	0.0	0.0	0.0	4.85555	0.14352	1481.48577
4626	7	12	18.5	430.61194	0.18528	0.02528	0.0	0.0	0.0	0.0	4.12096	0.14352	782.46043
4638	7	13	6.5	298.72223	0.17753	0.01753	0.0	0.0	0.0	0.0	3.7098	0.14352	558.08675
4639	7	13	7.5	711.30879	0.20175	0.04175	0.0	0.0	0.0	0.0	4.42517	0.14352	1220.25587
4640	7	13	8.5	1218.9833	0.23356	0.07155	0.00201	10.45837	0.02306	0.02186	5.03175	0.3297	3680.55435
4641	7	13	9.5	1728.78727	0.29473	0.10148	0.03325	28.46241	0.71977	0.36222	4.88921	0.66509	3855.07225
4642	7	13	10.5	2181.11087	0.32047	0.12803	0.03244	29.20679	0.77476	0.35341	4.7219	0.67634	4614.3726
4643	7	13	11.5	2506.45038	0.33936	0.14713	0.03223	30.69446	0.90901	0.35114	4.59416	0.698	5114.004
4644	7	13	12.5	2634.5206	0.34677	0.15465	0.03212	30.805	0.91625	0.3499	4.55031	0.69957	5352.7476
4645	7	13	13.5	2557.28155	0.34237	0.15011	0.03225	30.65877	0.90533	0.35135	4.58933	0.69749	5225.879
4646	7	13	14.5	2285.68989	0.32729	0.13417	0.03312	30.66378	0.8775	0.36075	4.78213	0.69757	4911.17935
4647	7	13	15.5	1876.73407	0.30398	0.11016	0.03382	29.36249	0.75871	0.36839	4.99587	0.67866	4278.7476
4648	7	13	16.5	1309.77091	0.25847	0.07688	0.02159	21.18951	0.25442	0.23519	4.77221	0.54146	3297.1469
4649	7	13	17.5	703.11824	0.20127	0.04127	0.0	0.0	0.0	0.0	4.08866	0.14352	1396.38346
4662	7	14	6.5	292.28683	0.17716	0.01716	0.0	0.0	0.0	0.0	3.64647	0.14352	556.21255
4663	7	14	7.5	662.31522	0.19888	0.03888	0.0	0.0	0.0	0.0	4.19804	0.14352	1183.66092
4664	7	14	8.5	1063.05687	0.22292	0.0624	0.00052	5.20999	0.0047	0.00568	4.32763	0.22916	2630.76582
4665	7	14	9.5	1350.91892	0.24319	0.0793	0.00389	13.24403	0.04866	0.04233	3.90127	0.38568	3015.06744
4666	7	14	10.5	1698.96687	0.28761	0.09973	0.02788	25.71736	0.66291	0.3037	3.85045	0.62125	3999.43429
4667	7	14	11.5	1920.60403	0.30126	0.11274	0.02852	26.73235	0.7366	0.31066	3.7527	0.63788	4712.40184
4668	7	14	12.5	2019.66453	0.30727	0.11855	0.02871	26.99738	0.74105	0.31277	3.83616	0.64215	4830.20859
4669	7	14	13.5	2227.04462	0.32044	0.13073	0.02972	27.69371	0.74453	0.32371	4.03642	0.65318	5034.61604
4670	7	14	14.5	2145.11758	0.31719	0.12592	0.03127	28.40547	0.76358	0.34063	4.34022	0.66422	4520.12419
4671	7	14	15.5	1854.8012	0.30218	0.10888	0.0333	29.01982	0.75636	0.36273	4.84574	0.67354	4017.629
4672	7	14	16.5	1244.58568	0.23519	0.07306	0.00214	10.76546	0.03113	0.02326	4.58005	0.33583	2933.21515
4673	7	14	17.5	678.57344	0.19983	0.03983	0.0	0.0	0.0	0.0	3.99295	0.14352	1429.94596
4686	7	15	6.5	292.99699	0.1772	0.0172	0.0	0.0	0.0	0.0	3.66297	0.14352	550.6188
4687	7	15	7.5	672.34947	0.19947	0.03947	0.0	0.0	0.0	0.0	4.27884	0.14352	1182.17798
4688	7	15	8.5	1109.81019	0.22604	0.06515	0.0009	7.26089	0.01115	0.00976	4.39471	0.26724	2804.8969
4689	7	15	9.5	1354.35322	0.24239	0.0795	0.00289	12.1586	0.04417	0.03152	3.91488	0.36379	3037.44244
4690	7	15	10.5	1968.55881	0.30602	0.11555	0.03046	27.87103	0.76264	0.33184	4.19376	0.65595	4141.19884
4691	7	15	11.5	2421.15435	0.33342	0.14212	0.03129	29.89387	0.90898	0.34089	4.30757	0.68648	4899.04954
4692	7	15	12.5	2627.79077	0.34596	0.15425	0.03171	30.54024	0.92031	0.34541	4.43941	0.69581	5288.5219
4693	7	15	13.5	2588.20244	0.34403	0.15193	0.03211	30.65596	0.91031	0.34975	4.56488	0.69745	5285.6226
4694	7	15	14.5	2301.95763	0.32818	0.13512	0.03306	30.73797	0.88408	0.36011	4.77476	0.69862	4933.55435
4695	7	15	15.5	1880.82604	0.30416	0.1104	0.03375	29.34131	0.7598	0.36765	4.97857	0.67834	4233.9976
4696	7	15	16.5	1389.00037	0.27317	0.08153	0.03163	25.53546	0.52459	0.3446	5.11778	0.61822	3832.69725
4697	7	15	17.5	865.58247	0.21081	0.05081	0.0	0.0	0.0	0.0	4.82949	0.14352	1467.3324
4698	7	15	18.5	423.02851	0.18483	0.02483	0.0	0.0	0.0	0.0	4.09163	0.14352	771.27293
4710	7	16	6.5	288.95509	0.17696	0.01696	0.0	0.0	0.0	0.0	3.66071	0.14352	553.41568
4711	7	16	7.5	700.12525	0.2011	0.0411	0.0	0.0	0.0	0.0	4.36848	0.14352	1194.84842
4712	7	16	8.5	1195.87477	0.23226	0.0702	0.00206	10.49747	0.02361	0.02244	4.94124	0.33048	3586.57225
4713	7	16	9.5	1691.39813	0.29201	0.09929	0.03272	28.17985	0.72123	0.35643	4.77947	0.66075	3720.82225
4714	7	16	10.5	2054.6376	0.31182	0.12061	0.03121	28.36412	0.76539	0.34001	4.40849	0.66358	4119.09015
4715	7	16	11.5	2188.56852	0.31801	0.12847	0.02954	27.66404	0.7577	0.32176	4.01626	0.65272	4831.79139
4716	7	16	12.5	2026.05275	0.30749	0.11893	0.02856	26.93993	0.74096	0.31108	3.79936	0.64123	4852.58359
4717	7	16	13.5	1923.87577	0.30153	0.11293	0.0286	26.79242	0.7389	0.31153	3.78547	0.63885	4695.95859
4718	7	16	14.5	1692.52749	0.28851	0.09935	0.02916	26.6151	0.72385	0.31763	4.03383	0.63599	3956.26709
4719	7	16	15.5	1360.98498	0.24437	0.07989	0.00448	13.8271	0.05816	0.04881	3.91291	0.39744	3262.64209
4720	7	16	16.5	994.02216	0.21854	0.05835	0.00019	1.53576	0.00245	0.00211	3.94119	0.16681	2276.37219
4721	7	16	17.5	608.8734	0.19574	0.03574	0.0	0.0	0.0	0.0	3.83255	0.14352	1321.03684
4734	7	17	6.5	265.76304	0.1756	0.0156	0.0	0.0	0.0	0.0	3.61588	0.14352	516.69389
4735	7	17	7.5	633.56581	0.19719	0.03719	0.0	0.0	0.0	0.0	4.0482	0.14352	1221.69665
4736	7	17	8.5	1028.12235	0.22095	0.06035	0.00059	5.57035	0.00534	0.00648	4.22889	0.23571	2493.54995
4737	7	17	9.5	1345.17506	0.24074	0.07896	0.00178	10.3436	0.03277	0.01937	3.91614	0.32741	2976.24919
4738	7	17	10.5	1431.03779	0.24783	0.084	0.00383	13.39002	0.05645	0.04171	3.69402	0.38862	3487.84174
4744	7	17	16.5	989.2489	0.21825	0.05807	0.00018	1.3008	0.00239	0.00198	3.97641	0.16313	2268.15057
4745	7	17	17.5	805.07556	0.20726	0.04726	0.0	0.0	0.0	0.0	4.42661	0.14352	1489.57425
4746	7	17	18.5	412.11482	0.18419	0.02419	0.0	0.0	0.0	0.0	4.172	0.14352	737.71043
4758	7	18	6.5	280.77713	0.17648	0.01648	0.0	0.0	0.0	0.0	3.62452	0.14352	544.10238
4759	7	18	7.5	691.66088	0.2006	0.0406	0.0	0.0	0.0	0.0	4.33608	0.14352	1204.55298
4760	7	18	8.5	1189.92157	0.23184	0.06985	0.00199	10.34953	0.02308	0.02164	4.89532	0.32753	3586.57225
4761	7	18	9.5	1683.72241	0.29141	0.09883	0.03257	28.08707	0.72023	0.3548	4.75124	0.65931	3720.82225
4762	7	18	10.5	2151.43683	0.3179	0.12629	0.03161	28.72183	0.77087	0.34438	4.51682	0.66904	4392.07225
4763	7	18	11.5	2457.88575	0.33573	0.14428	0.03145	30.25627	0.92155	0.34262	4.39409	0.69174	4900.7655
4764	7	18	12.5	2576.50023	0.34261	0.15124	0.03136	30.35079	0.92734	0.34167	4.36728	0.6931	5131.8969
4765	7	18	13.5	2399.88034	0.33151	0.14087	0.03064	29.18736	0.87724	0.33375	4.16411	0.67605	5149.52349
4766	7	18	14.5	2007.63284	0.30822	0.11785	0.03037	27.7885	0.75587	0.33086	4.18397	0.65467	4403.76709
4767	7	18	15.5	1472.22598	0.26952	0.08642	0.0231	22.38437	0.36822	0.25169	4.05718	0.56335	3419.26709
4768	7	18	16.5	1044.37319	0.22189	0.0613	0.00058	5.54312	0.00792	0.00633	4.04745	0.23521	2358.37539
4769	7	18	17.5	627.03299	0.19681	0.03681	0.0	0.0	0.0	0.0	3.8681	0.14352	1343.41184
4782	7	19	6.5	223.00173	0.17309	0.01309	0.0	0.0	0.0	0.0	3.48177	0.14352	449.76674
4786	7	19	10.5	1066.07103	0.22317	0.06258	0.00059	5.64688	0.00854	0.0064	3.40481	0.23711	2624.18077
4787	7	19	11.5	1630.13382	0.27895	0.09569	0.02326	23.13101	0.46741	0.25338	3.61286	0.57674	4105.37754
4788	7	19	12.5	2015.5266	0.30668	0.11831	0.02836	26.83033	0.74084	0.30898	3.73101	0.63946	4885.47009
4789	7	19	13.5	2297.67723	0.32452	0.13487	0.02964	27.80005	0.75371	0.3229	4.03661	0.65485	5145.04139
4790	7	19	14.5	2226.32412	0.32204	0.13069	0.03136	28.63647	0.77351	0.34159	4.42652	0.66774	4478.53979
4791	7	19	15.5	1872.91023	0.30332	0.10994	0.03338	29.16717	0.76149	0.3636	4.90724	0.67575	4211.6226
4792	7	19	16.5	1379.4313	0.27209	0.08097	0.03112	25.2036	0.50262	0.33898	5.13905	0.61265	3898.3726
4793	7	19	17.5	858.75601	0.21041	0.05041	0.0	0.0	0.0	0.0	4.80747	0.14352	1447.92327
4794	7	19	18.5	418.06333	0.18454	0.02454	0.0	0.0	0.0	0.0	4.07582	0.14352	776.86668
4806	7	20	6.5	275.48546	0.17617	0.01617	0.0	0.0	0.0	0.0	3.5868	0.14352	542.04697
4807	7	20	7.5	683.75676	0.20014	0.04014	0.0	0.0	0.0	0.0	4.31238	0.14352	1189.25467
4808	7	20	8.5	1182.60305	0.23159	0.06942	0.00217	10.65977	0.02367	0.02369	4.88343	0.33372	3585.1226
4809	7	20	9.5	1678.88399	0.29095	0.09855	0.0324	27.9894	0.71896	0.35299	4.72193	0.6578	3743.19725
4810	7	20	10.5	2053.77989	0.31146	0.12056	0.03091	28.23433	0.76646	0.33666	4.3558	0.66159	4074.34015
4811	7	20	11.5	2188.70604	0.31774	0.12848	0.02927	27.56624	0.75966	0.31882	3.96999	0.65118	4837.72314
4812	7	20	12.5	2026.23588	0.30722	0.11894	0.02828	26.82327	0.74068	0.30801	3.7411	0.63935	4891.40184
4813	7	20	13.5	2291.50263	0.32407	0.13451	0.02956	27.75935	0.7543	0.32203	4.01019	0.65421	5101.74104
4814	7	20	14.5	2227.83234	0.32204	0.13077	0.03126	28.61056	0.77564	0.34055	4.4093	0.66735	4478.53979
4815	7	20	15.5	1877.01463	0.30349	0.11018	0.0333	29.14971	0.76242	0.36279	4.89738	0.67549	4172.80435
4816	7	20	16.5	1315.62958	0.25821	0.07723	0.02098	21.01993	0.24765	0.22854	4.81186	0.53831	3409.0219
4817	7	20	17.5	756.09862	0.20438	0.04438	0.0	0.0	0.0	0.0	4.17709	0.14352	1546.23657
4830	7	21	6.5	261.85079	0.17537	0.01537	0.0	0.0	0.0	0.0	3.62359	0.14352	508.12206
4831	7	21	7.5	681.9239	0.20003	0.04003	0.0	0.0	0.0	0.0	4.30082	0.14352	1195.21083
4832	7	21	8.5	1184.24249	0.23167	0.06952	0.00215	10.62645	0.02265	0.02347	4.93276	0.33305	3653.69725
4833	7	21	9.5	1714.73618	0.29327	0.10066	0.03262	28.23387	0.72696	0.35529	4.77923	0.66158	3838.629
4834	7	21	10.5	2180.27473	0.31962	0.12798	0.03164	28.88713	0.78207	0.34463	4.56581	0.67154	4554.629
4835	7	21	11.5	2487.58607	0.33743	0.14602	0.03141	30.3696	0.92955	0.34219	4.40749	0.69337	4973.82225
4836	7	21	12.5	2579.21254	0.34249	0.1514	0.03109	30.26561	0.93561	0.3387	4.30905	0.69187	5109.5219
4837	7	21	13.5	2519.24124	0.33912	0.14788	0.03124	30.18406	0.92608	0.34034	4.35976	0.69069	5012.6405
4838	7	21	14.5	2255.64935	0.32443	0.13241	0.03202	30.0901	0.89033	0.34884	4.54611	0.68933	4660.57225
4839	7	21	15.5	1852.36593	0.30152	0.10873	0.03278	28.8288	0.76167	0.35711	4.74724	0.67066	3950.504
4840	7	21	16.5	1309.09222	0.25677	0.07684	0.01992	20.6448	0.22752	0.21701	4.78966	0.5313	3424.0155
4841	7	21	17.5	791.50608	0.20646	0.04646	0.0	0.0	0.0	0.0	4.38302	0.14352	1485.88354
4842	7	21	18.5	366.95131	0.18154	0.02154	0.0	0.0	0.0	0.0	3.8548	0.14352	711.22458
4854	7	22	6.5	268.49147	0.17576	0.01576	0.0	0.0	0.0	0.0	3.56247	0.14352	533.65635
4855	7	22	7.5	648.85033	0.19809	0.03809	0.0	0.0	0.0	0.0	4.27117	0.14352	1144.50467
4856	7	22	8.5	1177.65735	0.2314	0.06913	0.00227	10.79885	0.02414	0.0247	4.86453	0.3365	3585.1226
4857	7	22	9.5	1682.502	0.29105	0.09876	0.03229	27.9947	0.72372	0.35169	4.70527	0.65788	3743.19725
4858	7	22	10.5	2099.42019	0.31421	0.12324	0.03097	28.36706	0.77053	0.33741	4.39268	0.66363	4207.1405
