ann_hour	month	day	hour	illum	dgp	dgp_t1	dgp_t2	ugr	srcarea	log_gc	gcr	ugp	maxlum
9	1	1	9.5	91.04334	0.16534	0.00534	0.0	0.0	0.0	0.0	7.72923	0.14352	811.1873
10	1	1	10.5	260.86153	0.17968	0.01531	0.00437	8.53137	0.00175	0.04759	7.29887	0.2917	2083.36972
11	1	1	11.5	224.15298	0.17316	0.01316	0.0	0.0	0.0	0.0	5.49707	0.14352	1341.23745
34	1	2	10.5	160.69337	0.16943	0.00943	0.0	0.0	0.0	0.0	6.37374	0.14352	1095.71043
35	1	2	11.5	270.07078	0.17585	0.01585	0.0	0.0	0.0	0.0	5.2729	0.14352	1523.92815
36	1	2	12.5	573.0082	0.47737	0.03364	0.28374	44.98385	0.0002	3.09084	10388.85122	0.85254	3535662.65159
37	1	2	13.5	660.61768	0.49776	0.03878	0.29898	46.95712	0.00024	3.2569	13350.35251	0.86716	4937536.0
38	1	2	14.5	252.17634	0.1748	0.0148	0.0	0.0	0.0	0.0	4.70528	0.14352	1828.29827
39	1	2	15.5	139.75915	0.1682	0.0082	0.0	0.0	0.0	0.0	6.20408	0.14352	1559.07345
106	1	5	10.5	265.04167	0.18522	0.01556	0.00966	11.63347	0.00415	0.10522	7.47265	0.35323	2160.9574
107	1	5	11.5	315.05054	0.17849	0.01849	0.0	0.0	0.0	0.0	5.43378	0.14352	1699.23745
108	1	5	12.5	550.31948	0.47009	0.0323	0.27778	44.14968	0.00029	3.02597	9039.09563	0.84593	3494080.0
109	1	5	13.5	647.61476	0.4946	0.03801	0.29658	46.5831	0.00024	3.23076	12914.92915	0.8645	4490105.22597
110	1	5	14.5	281.75373	0.17668	0.01654	0.00014	0.0	4e-05	0.00151	4.8255	0.14352	2052.04827
111	1	5	15.5	151.79374	0.16891	0.00891	0.0	0.0	0.0	0.0	6.35161	0.14352	1760.44845
181	1	8	13.5	247.03782	0.39922	0.0145	0.22472	36.18543	0.00023	2.44793	2309.77711	0.76846	804784.0
182	1	8	14.5	225.1386	0.17322	0.01322	0.0	0.0	0.0	0.0	4.86344	0.14352	1433.7699
183	1	8	15.5	137.06281	0.16805	0.00805	0.0	0.0	0.0	0.0	6.10556	0.14352	1491.94845
201	1	9	9.5	91.51713	0.16537	0.00537	0.0	0.0	0.0	0.0	7.84867	0.14352	873.44337
202	1	9	10.5	228.18474	0.17339	0.01339	0.0	0.0	0.0	0.0	7.12304	0.14352	1803.68222
203	1	9	11.5	232.48395	0.17365	0.01365	0.0	0.0	0.0	0.0	5.67899	0.14352	1344.20332
225	1	10	9.5	95.31625	0.1656	0.0056	0.0	0.0	0.0	0.0	7.96169	0.14352	844.7498
226	1	10	10.5	283.72831	0.19995	0.01665	0.0233	15.75591	0.01326	0.2538	7.82663	0.4362	2386.15705
227	1	10	11.5	410.71961	0.20069	0.02411	0.01658	15.35025	0.01809	0.18059	5.73083	0.42808	2398.86077
228	1	10	12.5	964.65895	0.52358	0.05663	0.30696	49.31275	0.00029	3.34377	19172.77044	0.88288	7967729.26587
229	1	10	13.5	901.47065	0.51858	0.05292	0.30567	48.88759	0.00031	3.3297	16689.37378	0.88018	7492224.0
230	1	10	14.5	335.20046	0.19107	0.01968	0.0114	13.00301	0.0044	0.12414	4.73062	0.38082	2777.78612
231	1	10	15.5	164.24904	0.16964	0.00964	0.0	0.0	0.0	0.0	6.43569	0.14352	1939.44845
249	1	11	9.5	75.04205	0.1644	0.0044	0.0	0.0	0.0	0.0	8.19089	0.14352	693.38942
250	1	11	10.5	193.89904	0.17138	0.01138	0.0	0.0	0.0	0.0	7.00986	0.14352	1468.05722
251	1	11	11.5	337.65534	0.17982	0.01982	0.0	0.0	0.0	0.0	5.67744	0.14352	1849.15705
252	1	11	12.5	843.14556	0.50348	0.04949	0.29399	47.4424	0.00057	3.2025	14011.47311	0.87055	6484096.0
253	1	11	13.5	882.54246	0.51763	0.05181	0.30583	48.79297	0.00024	3.33147	16998.0177	0.87957	7308928.0
254	1	11	14.5	335.70664	0.19052	0.01971	0.01081	12.7934	0.0043	0.11777	4.74606	0.37659	2741.25775
255	1	11	15.5	166.55646	0.16978	0.00978	0.0	0.0	0.0	0.0	6.45524	0.14352	1981.23257
417	1	18	9.5	105.42783	0.16619	0.00619	0.0	0.0	0.0	0.0	8.35053	0.14352	1010.68366
418	1	18	10.5	299.26362	0.2117	0.01757	0.03413	18.04086	0.02362	0.37178	8.34205	0.48141	2665.11972
419	1	18	11.5	415.98082	0.20183	0.02442	0.01742	15.61039	0.01826	0.18973	6.0484	0.43329	2518.9574
420	1	18	12.5	551.47611	0.42747	0.03237	0.2351	39.36527	0.00124	2.56101	3136.18507	0.80268	3791936.0
421	1	18	13.5	757.77111	0.49869	0.04448	0.29421	46.80172	0.00069	3.20491	13919.38523	0.86606	6438272.0
422	1	18	14.5	302.67976	0.17983	0.01777	0.00207	6.25371	0.00083	0.02251	5.14013	0.2483	2175.8356
423	1	18	15.5	151.98927	0.16892	0.00892	0.0	0.0	0.0	0.0	6.18607	0.14352	1559.79827
585	1	25	9.5	147.03289	0.16863	0.00863	0.0	0.0	0.0	0.0	11.39158	0.14352	1679.17007
586	1	25	10.5	246.31467	0.18392	0.01446	0.00946	11.32164	0.00353	0.10305	7.99136	0.34697	2151.21955
587	1	25	11.5	304.09221	0.17785	0.01785	0.0	0.0	0.0	0.0	6.0686	0.14352	1745.4371
588	1	25	12.5	316.73568	0.17859	0.01859	0.0	0.0	0.0	0.0	5.57203	0.14352	1835.66192
589	1	25	13.5	367.22924	0.18169	0.02156	0.00013	0.0	8e-05	0.00145	5.16575	0.14352	2127.26175
590	1	25	14.5	325.30525	0.18342	0.0191	0.00433	9.16423	0.00194	0.04715	5.573	0.30408	2303.42902
591	1	25	15.5	199.60731	0.18102	0.01172	0.0093	10.58792	0.00178	0.1013	6.86676	0.33228	2254.1481
592	1	25	16.5	65.54025	0.16385	0.00385	0.0	0.0	0.0	0.0	7.62361	0.14352	858.57405
660	1	28	12.5	252.20689	0.1748	0.0148	0.0	0.0	0.0	0.0	6.10085	0.14352	1755.83319
661	1	28	13.5	345.16914	0.18026	0.02026	0.0	0.0	0.0	0.0	5.33814	0.14352	1958.72442
662	1	28	14.5	323.73972	0.18202	0.019	0.00302	7.8222	0.00135	0.03285	5.75789	0.27798	2239.99472
663	1	28	15.5	207.3834	0.18414	0.01217	0.01196	11.72213	0.00245	0.13032	7.01666	0.35501	2339.9574
664	1	28	16.5	64.59089	0.16379	0.00379	0.0	0.0	0.0	0.0	7.42852	0.14352	696.3553
681	1	29	9.5	148.34663	0.16871	0.00871	0.0	0.0	0.0	0.0	10.20783	0.14352	1601.5824
682	1	29	10.5	262.4302	0.18825	0.0154	0.01284	12.77425	0.00541	0.13988	8.02333	0.3762	2272.041
683	1	29	11.5	266.96533	0.17567	0.01567	0.0	0.0	0.0	0.0	6.40352	0.14352	1679.03692
686	1	29	14.5	185.76183	0.1709	0.0109	0.0	0.0	0.0	0.0	5.93022	0.14352	1244.46735
687	1	29	15.5	123.34782	0.16724	0.00724	0.0	0.0	0.0	0.0	6.45593	0.14352	929.77657
707	1	30	11.5	188.70374	0.17108	0.01108	0.0	0.0	0.0	0.0	6.20268	0.14352	1300.17806
708	1	30	12.5	228.38761	0.17341	0.01341	0.0	0.0	0.0	0.0	5.87306	0.14352	1507.53372
709	1	30	13.5	234.03746	0.17374	0.01374	0.0	0.0	0.0	0.0	5.811	0.14352	1488.1246
710	1	30	14.5	194.14866	0.1714	0.0114	0.0	0.0	0.0	0.0	6.05626	0.14352	1308.39977
711	1	30	15.5	124.80515	0.16733	0.00733	0.0	0.0	0.0	0.0	6.5132	0.14352	939.48114
752	2	1	8.5	32.72271	0.16192	0.00192	0.0	0.0	0.0	0.0	9.81435	0.14352	416.59994
753	2	1	9.5	167.81142	0.16985	0.00985	0.0	0.0	0.0	0.0	11.49875	0.14352	1981.9574
754	2	1	10.5	352.25785	0.21864	0.02068	0.03797	19.09394	0.02066	0.41358	9.42833	0.50183	3495.6226
755	2	1	11.5	438.39483	0.20399	0.02573	0.01826	15.95882	0.01641	0.19886	6.80633	0.44026	2824.3726
756	2	1	12.5	489.3034	0.19256	0.02872	0.00384	9.97026	0.00324	0.04186	5.5685	0.31999	2595.75367
757	2	1	13.5	491.59555	0.19306	0.02886	0.0042	10.31764	0.00356	0.0458	5.48358	0.3269	2542.78205
758	2	1	14.5	412.24013	0.19661	0.0242	0.01241	13.98264	0.00521	0.13519	6.25919	0.40058	3521.03005
759	2	1	15.5	260.33363	0.19948	0.01528	0.0242	15.50718	0.00384	0.26358	7.81519	0.43123	3746.2297
760	2	1	16.5	97.136	0.1657	0.0057	0.0	0.0	0.0	0.0	9.19164	0.14352	1516.5645
805	2	3	13.5	250.4679	0.1747	0.0147	0.0	0.0	0.0	0.0	5.99908	0.14352	1564.19604
806	2	3	14.5	303.0827	0.17779	0.01779	0.0	0.0	0.0	0.0	6.05498	0.14352	1949.11972
807	2	3	15.5	232.56926	0.18916	0.01365	0.0155	13.15613	0.00295	0.1689	7.47706	0.38391	2807.92935
808	2	3	16.5	89.32694	0.16524	0.00524	0.0	0.0	0.0	0.0	8.51625	0.14352	1287.05175
876	2	6	12.5	293.0672	0.17725	0.0172	5e-05	0.0	2e-05	0.00052	6.10492	0.14352	2022.09214
877	2	6	13.5	252.51597	0.17482	0.01482	0.0	0.0	0.0	0.0	6.18901	0.14352	1755.83319
897	2	7	9.5	194.65934	0.20468	0.01143	0.03325	16.38701	0.01022	0.36225	12.26195	0.44879	2408.53205
898	2	7	10.5	364.00247	0.21821	0.02137	0.03684	18.98655	0.01891	0.40136	9.61211	0.49977	3696.9976
899	2	7	11.5	450.16214	0.20541	0.02642	0.01899	16.21419	0.01639	0.20685	7.20553	0.44535	2964.55435
900	2	7	12.5	502.91142	0.19488	0.02952	0.00536	11.29543	0.00462	0.05835	5.95541	0.34644	2803.44725
901	2	7	13.5	397.07081	0.18478	0.02331	0.00147	5.87426	0.00089	0.01607	5.88368	0.24128	2433.85517
902	2	7	14.5	253.139	0.17486	0.01486	0.0	0.0	0.0	0.0	6.52763	0.14352	1867.70819
922	2	8	10.5	176.29379	0.17035	0.01035	0.0	0.0	0.0	0.0	7.48292	0.14352	1400.86556
923	2	8	11.5	282.05514	0.17656	0.01656	0.0	0.0	0.0	0.0	6.88243	0.14352	1934.10837
924	2	8	12.5	371.94733	0.18271	0.02183	0.00088	3.83939	0.00047	0.00956	6.06471	0.20492	2369.62947
925	2	8	13.5	311.83021	0.17848	0.0183	0.00018	0.0	8e-05	0.00194	6.15577	0.14352	2043.01749
926	2	8	14.5	211.97803	0.17244	0.01244	0.0	0.0	0.0	0.0	6.51232	0.14352	1500.03692
928	2	8	16.5	78.54079	0.16461	0.00461	0.0	0.0	0.0	0.0	7.68052	0.14352	811.22059
944	2	9	8.5	56.01354	0.16329	0.00329	0.0	0.0	0.0	0.0	12.47009	0.14352	774.30539
945	2	9	9.5	220.99391	0.2229	0.01297	0.04992	19.41727	0.01937	0.54384	13.65968	0.50804	2980.9976
946	2	9	10.5	397.46825	0.22332	0.02333	0.03999	19.72879	0.01892	0.43561	10.30061	0.51399	4233.9976
947	2	9	11.5	482.05841	0.21039	0.0283	0.0221	17.14811	0.01884	0.24071	7.77146	0.46387	3298.7297
948	2	9	12.5	528.84875	0.19846	0.03104	0.00742	12.69821	0.00652	0.08078	6.33906	0.37467	2942.17935
949	2	9	13.5	510.32929	0.19618	0.02996	0.00623	11.91178	0.00509	0.06785	6.17604	0.35882	2785.55435
950	2	9	14.5	413.47944	0.19588	0.02427	0.01161	13.72207	0.00565	0.12643	6.75854	0.39532	3343.4797
951	2	9	15.5	266.14416	0.19474	0.01562	0.01912	14.48017	0.00328	0.20828	8.04444	0.4106	3583.67295
952	2	9	16.5	123.88259	0.18547	0.00727	0.01819	11.91624	0.0016	0.19818	10.60586	0.35891	2252.69845
968	2	10	8.5	52.50652	0.16308	0.00308	0.0	0.0	0.0	0.0	11.98765	0.14352	760.87684
969	2	10	9.5	224.06335	0.22314	0.01315	0.04998	19.45783	0.01902	0.54448	13.69957	0.50882	3031.67935
970	2	10	10.5	396.61284	0.22284	0.02328	0.03956	19.65168	0.01858	0.43094	10.3008	0.51252	4233.9976
971	2	10	11.5	473.87492	0.20909	0.02782	0.02127	16.90774	0.01793	0.23173	7.72662	0.45912	3233.05435
972	2	10	12.5	505.33504	0.19563	0.02966	0.00596	11.71705	0.00495	0.06497	6.16877	0.35491	2870.57225
973	2	10	13.5	441.14285	0.18963	0.0259	0.00373	9.54306	0.00257	0.04063	6.15683	0.31154	2742.12085
974	2	10	14.5	331.62867	0.18216	0.01947	0.00269	7.47951	0.00125	0.02929	6.63102	0.27141	2195.96955
975	2	10	15.5	201.81995	0.17197	0.01185	0.00013	0.0	2e-05	0.00139	7.31559	0.14352	2028.15705
976	2	10	16.5	112.10435	0.16658	0.00658	0.0	0.0	0.0	0.0	9.23116	0.14352	1715.69845
992	2	11	8.5	61.64865	0.16362	0.00362	0.0	0.0	0.0	0.0	12.97475	0.14352	885.05986
993	2	11	9.5	227.11851	0.22348	0.01333	0.05015	19.51032	0.01859	0.54627	13.78831	0.50982	3115.2476
994	2	11	10.5	388.15717	0.22123	0.02278	0.03845	19.41129	0.0182	0.41879	10.16441	0.50793	4122.1226
995	2	11	11.5	350.95084	0.18288	0.0206	0.00228	7.05598	0.00142	0.02481	7.07731	0.26336	2379.36732
1016	2	12	8.5	46.73971	0.16274	0.00274	0.0	0.0	0.0	0.0	10.1696	0.14352	579.16446
1017	2	12	9.5	147.56005	0.16866	0.00866	0.0	0.0	0.0	0.0	9.70106	0.14352	1521.02885
1018	2	12	10.5	240.79736	0.17433	0.01413	0.0002	0.0	7e-05	0.00214	8.28857	0.14352	2004.26582
1019	2	12	11.5	289.88127	0.17702	0.01702	0.0	0.0	0.0	0.0	7.15057	0.14352	1990.77069
1020	2	12	12.5	303.56706	0.17813	0.01782	0.00031	0.0	0.00012	0.00343	6.4968	0.14352	2180.16679
1021	2	12	13.5	386.73152	0.18457	0.0227	0.00187	6.63842	0.00099	0.02036	6.31455	0.25548	2589.68877
1022	2	12	14.5	377.60786	0.18959	0.02217	0.00743	11.66437	0.00374	0.08091	6.98189	0.35385	2695.71635
1023	2	12	15.5	285.71399	0.19798	0.01677	0.02121	15.16029	0.00326	0.23099	8.62114	0.42427	4083.30435
1024	2	12	16.5	143.89799	0.20804	0.00845	0.03959	16.29652	0.00461	0.43129	11.4129	0.44699	2806.4797
1040	2	13	8.5	67.47007	0.16396	0.00396	0.0	0.0	0.0	0.0	13.58106	0.14352	996.93486
1041	2	13	9.5	248.64251	0.22752	0.0146	0.05293	20.14942	0.01856	0.57654	14.27543	0.52198	3540.3726
1042	2	13	10.5	411.66138	0.2244	0.02416	0.04023	19.85808	0.01855	0.43827	10.69355	0.51645	4501.04795
1043	2	13	11.5	490.70313	0.21162	0.0288	0.02281	17.35304	0.019	0.2485	8.18064	0.46791	3432.9797
1044	2	13	12.5	539.0608	0.22046	0.03164	0.02881	18.98552	0.04256	0.31388	7.11293	0.49975	3121.17935
1045	2	13	13.5	525.33717	0.21263	0.03084	0.02179	17.37997	0.02705	0.23741	7.04898	0.46845	3076.42935
1046	2	13	14.5	438.84731	0.20085	0.02576	0.01509	15.01582	0.00772	0.16434	7.69579	0.42137	3813.3547
1047	2	13	15.5	295.85058	0.19914	0.01737	0.02178	15.38682	0.00325	0.23722	8.84682	0.42881	4284.67935
1048	2	13	16.5	150.37857	0.20912	0.00883	0.0403	16.52739	0.00453	0.43896	11.69168	0.45158	2986.92935
1049	2	13	17.5	21.65839	0.16127	0.00127	0.0	0.0	0.0	0.0	7.60227	0.14352	244.93948
1096	2	15	16.5	92.77527	0.16545	0.00545	0.0	0.0	0.0	0.0	8.17686	0.14352	990.583
1118	2	16	14.5	205.37978	0.17206	0.01206	0.0	0.0	0.0	0.0	7.01783	0.14352	1620.85837
1119	2	16	15.5	168.75196	0.16991	0.00991	0.0	0.0	0.0	0.0	7.69867	0.14352	1341.23745
1304	2	24	8.5	82.45258	0.16484	0.00484	0.0	0.0	0.0	0.0	12.28952	0.14352	1203.50791
1305	2	24	9.5	240.89419	0.21617	0.01414	0.04203	18.41959	0.01295	0.45783	12.7378	0.48879	3319.5219
1306	2	24	10.5	319.18039	0.20245	0.01874	0.02372	16.17269	0.01186	0.25834	9.38839	0.44452	3006.2719
1307	2	24	11.5	310.33117	0.17922	0.01822	0.001	3.76717	0.00038	0.01094	8.04288	0.20367	2345.01342
1328	2	25	8.5	58.51855	0.16344	0.00344	0.0	0.0	0.0	0.0	10.17374	0.14352	750.41416
1329	2	25	9.5	144.60589	0.16849	0.00849	0.0	0.0	0.0	0.0	9.43223	0.14352	1434.42815
1330	2	25	10.5	235.32961	0.17384	0.01381	3e-05	0.0	1e-05	0.00034	8.7155	0.14352	2027.29907
1331	2	25	11.5	292.48263	0.17777	0.01717	0.0006	1.7792	0.0002	0.00654	7.9926	0.17067	2255.51342
1332	2	25	12.5	322.3559	0.17994	0.01892	0.00102	3.94088	0.00043	0.01113	7.64585	0.20667	2435.23824
1333	2	25	13.5	400.60548	0.18982	0.02352	0.00631	11.21445	0.00347	0.0687	7.80559	0.34482	3067.33199
1334	2	25	14.5	395.10289	0.19535	0.02319	0.01215	13.78345	0.0065	0.1324	8.50306	0.39656	2995.85804
1335	2	25	15.5	315.24523	0.19596	0.0185	0.01745	14.58859	0.0035	0.1901	9.51	0.41278	4233.9976
1336	2	25	16.5	175.05365	0.20345	0.01028	0.03317	15.86899	0.00312	0.36138	11.73733	0.43846	3679.1047
1337	2	25	17.5	41.46966	0.16243	0.00243	0.0	0.0	0.0	0.0	8.15921	0.14352	643.70708
1352	2	26	8.5	83.94369	0.16493	0.00493	0.0	0.0	0.0	0.0	11.80954	0.14352	1140.46043
1353	2	26	9.5	229.34814	0.21136	0.01346	0.0379	17.6356	0.01169	0.41281	12.15117	0.47347	3071.94725
1354	2	26	10.5	377.22315	0.21316	0.02214	0.03102	18.06778	0.015	0.33792	10.21572	0.48194	3916.2655
1355	2	26	11.5	490.23641	0.23411	0.02878	0.04534	21.65583	0.06381	0.49386	8.90159	0.55007	3406.1226
1356	2	26	12.5	531.99475	0.24853	0.03123	0.0573	24.20596	0.10709	0.62417	8.84404	0.5956	3652.2476
1357	2	26	13.5	513.58393	0.24917	0.03015	0.05902	24.33083	0.10416	0.64295	9.24684	0.59776	3546.30435
1358	2	26	14.5	447.50518	0.23028	0.02627	0.04401	21.02652	0.05252	0.47946	9.80171	0.53843	4126.6047
1359	2	26	15.5	325.65593	0.20201	0.01912	0.0229	15.93537	0.00509	0.24941	10.39248	0.43979	4909.7297
1360	2	26	16.5	178.30336	0.20159	0.01047	0.03112	15.58574	0.00292	0.339	11.58471	0.4328	3695.54795
1361	2	26	17.5	42.838	0.16251	0.00251	0.0	0.0	0.0	0.0	8.23689	0.14352	682.86333
1376	2	27	8.5	100.58627	0.1659	0.0059	0.0	0.0	0.0	0.0	12.77055	0.14352	1559.00687
1377	2	27	9.5	266.67272	0.22326	0.01565	0.04761	19.49087	0.01257	0.51863	13.86781	0.50945	4078.82225
1378	2	27	10.5	412.50879	0.21925	0.02421	0.03504	19.02693	0.01737	0.3817	10.64722	0.50054	4481.57225
1379	2	27	11.5	503.82037	0.24009	0.02957	0.05052	22.6534	0.07609	0.55032	9.54204	0.5682	3658.17935
1380	2	27	12.5	535.01762	0.25329	0.03141	0.06189	25.20495	0.12333	0.67416	9.28843	0.61267	3673.17295
1381	2	27	13.5	514.97961	0.25112	0.03023	0.06089	24.73452	0.11077	0.66324	9.41961	0.60469	3606.04795
1382	2	27	14.5	446.30782	0.24228	0.0262	0.05608	23.15085	0.08132	0.61094	10.02696	0.57709	4147.53005
1383	2	27	15.5	327.38418	0.20225	0.01922	0.02303	15.98246	0.0053	0.25091	10.5235	0.44073	4954.4797
1384	2	27	16.5	180.52448	0.20073	0.0106	0.03013	15.4523	0.00274	0.32823	11.58345	0.43013	3790.9797
1385	2	27	17.5	44.88712	0.16263	0.00263	0.0	0.0	0.0	0.0	8.34623	0.14352	734.42431
1400	2	28	8.5	80.4767	0.16472	0.00472	0.0	0.0	0.0	0.0	11.33262	0.14352	1252.30215
1408	2	28	16.5	116.95091	0.16687	0.00687	0.0	0.0	0.0	0.0	8.99896	0.14352	1157.9998
1409	2	28	17.5	40.9998	0.16241	0.00241	0.0	0.0	0.0	0.0	8.51531	0.14352	416.979
1426	3	1	10.5	210.96169	0.17238	0.01238	0.0	0.0	0.0	0.0	8.71388	0.14352	1828.21394
1427	3	1	11.5	284.50086	0.17693	0.0167	0.00023	0.0	8e-05	0.00251	8.17108	0.14352	2183.13267
1428	3	1	12.5	314.31004	0.17985	0.01845	0.0014	4.984	0.0005	0.01527	8.23989	0.22509	2591.07184
1429	3	1	13.5	303.473	0.17821	0.01781	0.0004	0.42889	0.00014	0.00431	8.18669	0.14984	2531.44364
1430	3	1	14.5	254.23638	0.17512	0.01492	0.00019	0.0	5e-05	0.00209	8.32519	0.14352	2180.16679
1431	3	1	15.5	179.91654	0.17056	0.01056	0.0	0.0	0.0	0.0	8.52576	0.14352	1435.15297
1448	3	2	8.5	104.1602	0.16611	0.00611	0.0	0.0	0.0	0.0	14.04637	0.14352	1735.10757
1449	3	2	9.5	246.90894	0.21154	0.01449	0.03705	17.70543	0.01075	0.40354	12.33065	0.47484	3341.8969
1450	3	2	10.5	382.92068	0.21353	0.02248	0.03105	18.10883	0.01457	0.33828	10.53138	0.48274	4057.8969
1451	3	2	11.5	479.12093	0.2348	0.02812	0.04667	21.78514	0.06324	0.50844	9.33344	0.55244	3383.7476
1452	3	2	12.5	505.15139	0.2447	0.02965	0.05505	23.47089	0.0894	0.59966	9.11919	0.58276	3547.754
1453	3	2	13.5	457.70718	0.22937	0.02687	0.04251	20.8816	0.05284	0.46303	8.67016	0.53573	3337.41479
1454	3	2	14.5	352.97106	0.18744	0.02072	0.00672	11.07264	0.0032	0.07323	8.6879	0.34197	3000.20699
1455	3	2	15.5	221.06883	0.17298	0.01298	0.0	0.0	0.0	0.0	9.00629	0.14352	1815.59455
1456	3	2	16.5	125.34329	0.16736	0.00736	0.0	0.0	0.0	0.0	9.30351	0.14352	1219.53105
1472	3	3	8.5	93.49791	0.16549	0.00549	0.0	0.0	0.0	0.0	12.85923	0.14352	1511.291
1473	3	3	9.5	248.84185	0.21136	0.01461	0.03676	17.68021	0.01055	0.40039	12.33979	0.47435	3385.19725
1474	3	3	10.5	397.09266	0.21545	0.02331	0.03214	18.4197	0.01606	0.35012	10.6241	0.48879	4229.5155
1475	3	3	11.5	485.11978	0.23643	0.02848	0.04795	22.03597	0.06527	0.52238	9.48645	0.55702	3450.8726
1476	3	3	12.5	511.3949	0.25027	0.03002	0.06025	24.57764	0.10802	0.65631	9.54063	0.60201	3696.9976
1477	3	3	13.5	494.21416	0.24862	0.02901	0.05961	24.25653	0.09983	0.64936	9.66322	0.59648	3607.4976
1478	3	3	14.5	428.91012	0.23063	0.02518	0.04546	21.13857	0.05332	0.49516	9.73139	0.54051	3858.1047
1479	3	3	15.5	310.03643	0.19511	0.0182	0.01691	14.40601	0.00376	0.18425	10.08149	0.40911	4217.55435
1480	3	3	16.5	163.15906	0.18101	0.00958	0.01143	10.79154	0.00127	0.12455	10.26155	0.33635	2563.7074
1481	3	3	17.5	44.15514	0.16259	0.00259	0.0	0.0	0.0	0.0	8.68529	0.14352	484.104
1504	3	4	16.5	108.44987	0.16637	0.00637	0.0	0.0	0.0	0.0	8.98365	0.14352	1024.80375
1520	3	5	8.5	100.05579	0.16587	0.00587	0.0	0.0	0.0	0.0	11.92782	0.14352	1477.7285
1521	3	5	9.5	258.21667	0.21517	0.01516	0.04001	18.27594	0.01049	0.43586	12.94272	0.48599	3743.19725
1522	3	5	10.5	400.2234	0.21756	0.02349	0.03406	18.80644	0.01987	0.37108	10.78457	0.49629	4281.6469
1523	3	5	11.5	488.59027	0.24395	0.02868	0.05527	23.37023	0.08456	0.60206	9.72286	0.58098	3479.17935
1524	3	5	12.5	513.35574	0.25346	0.03013	0.06333	25.25144	0.11829	0.68984	9.85069	0.61346	3726.754
1525	3	5	13.5	499.04908	0.25282	0.02929	0.06353	25.06176	0.11002	0.69204	10.12953	0.61026	3696.9976
1526	3	5	14.5	431.42046	0.2326	0.02532	0.04727	21.45312	0.05544	0.51494	10.02523	0.54634	3925.2297
1527	3	5	15.5	314.05944	0.1959	0.01844	0.01746	14.58875	0.00411	0.1902	10.34871	0.41279	4329.42935
1528	3	5	16.5	167.40454	0.18051	0.00983	0.01068	10.59425	0.00115	0.11638	10.38359	0.33241	2644.26095
1529	3	5	17.5	48.51238	0.16285	0.00285	0.0	0.0	0.0	0.0	8.9704	0.14352	490.06016
1544	3	6	8.5	103.35522	0.16607	0.00607	0.0	0.0	0.0	0.0	11.99044	0.14352	1474.0378
1545	3	6	9.5	258.85687	0.21122	0.01519	0.03603	17.67258	0.00998	0.39244	12.50874	0.4742	3559.71515
1546	3	6	10.5	403.12637	0.21787	0.02366	0.03421	18.85122	0.01987	0.37265	10.89086	0.49715	4326.3969
1547	3	6	11.5	488.02912	0.24619	0.02865	0.05754	23.78615	0.09042	0.62682	9.768	0.5883	3499.97155
1548	3	6	12.5	517.95445	0.25492	0.0304	0.06451	25.46557	0.11809	0.70274	10.14325	0.61705	3764.1226
1549	3	6	13.5	493.70944	0.25165	0.02898	0.06267	24.85052	0.10711	0.68267	10.04885	0.60667	3635.80435
1550	3	6	14.5	426.68118	0.23204	0.02505	0.04699	21.3729	0.05478	0.51192	9.85892	0.54486	3740.29795
1551	3	6	15.5	297.75322	0.18944	0.01748	0.01196	12.81895	0.00296	0.13029	10.09092	0.3771	3473.2476
1552	3	6	16.5	157.27571	0.1775	0.00923	0.00827	9.39475	0.00091	0.09011	10.06787	0.30861	2406.35757
1553	3	6	17.5	46.74745	0.16274	0.00274	0.0	0.0	0.0	0.0	8.73673	0.14352	481.48833
1568	3	7	8.5	106.17348	0.16623	0.00623	0.0	0.0	0.0	0.0	12.07274	0.14352	1511.291
1569	3	7	9.5	263.8877	0.21483	0.01549	0.03934	18.23246	0.01008	0.42857	13.02176	0.48515	3834.1469
1570	3	7	10.5	403.10358	0.21766	0.02366	0.034	18.81486	0.01978	0.37032	10.95264	0.49645	4304.0219
1571	3	7	11.5	486.58829	0.24669	0.02856	0.05812	23.87114	0.09076	0.63316	9.86802	0.58978	3583.53979
1572	3	7	12.5	512.96658	0.25434	0.03011	0.06423	25.37795	0.11708	0.69965	10.10299	0.61558	3816.254
1573	3	7	13.5	493.20108	0.25303	0.02895	0.06408	25.14057	0.1111	0.69801	10.214	0.61159	3680.55435
1574	3	7	14.5	430.6014	0.23302	0.02528	0.04775	21.51943	0.05541	0.52013	10.0448	0.54756	3858.1047
1575	3	7	15.5	314.87853	0.19502	0.01848	0.01654	14.36039	0.00408	0.18017	10.48788	0.40819	4307.05435
1576	3	7	16.5	170.32009	0.17916	0.01	0.00916	10.03569	0.00099	0.09983	10.49566	0.32129	2667.36077
1577	3	7	17.5	51.60707	0.16303	0.00303	0.0	0.0	0.0	0.0	9.14022	0.14352	529.21641
1592	3	8	8.5	109.12062	0.16641	0.00641	0.0	0.0	0.0	0.0	12.13985	0.14352	1646.26582
1593	3	8	9.5	266.27784	0.21466	0.01563	0.03903	18.20811	0.00983	0.42519	13.06776	0.48467	3878.8969
1594	3	8	10.5	407.51585	0.21913	0.02392	0.03521	19.0465	0.02015	0.38356	11.21677	0.50092	4483.0219
1595	3	8	11.5	488.62361	0.24742	0.02868	0.05874	23.98545	0.09136	0.63984	9.97611	0.59177	3580.6405
1596	3	8	12.5	518.63158	0.256	0.03044	0.06555	25.62689	0.11714	0.71408	10.43686	0.61975	3837.17935
1597	3	8	13.5	494.70876	0.25456	0.02904	0.06552	25.45169	0.11485	0.71368	10.42782	0.61682	3810.32225
1598	3	8	14.5	431.77449	0.23475	0.02535	0.0494	21.79444	0.05748	0.53815	10.33881	0.55261	3947.6047
1599	3	8	15.5	316.67929	0.19616	0.01859	0.01757	14.65111	0.00471	0.19142	10.65551	0.41404	4366.79795
1600	3	8	16.5	172.47447	0.17866	0.01012	0.00853	9.79395	0.00091	0.09296	10.57954	0.3165	2708.42007
1601	3	8	17.5	52.77355	0.1631	0.0031	0.0	0.0	0.0	0.0	9.23839	0.14352	621.51329
1616	3	9	8.5	112.17162	0.16658	0.00658	0.0	0.0	0.0	0.0	12.1922	0.14352	1567.2285
1617	3	9	9.5	265.95282	0.21063	0.01561	0.03502	17.58477	0.00946	0.38146	12.61659	0.47247	3655.1469
1618	3	9	10.5	406.63974	0.21793	0.02387	0.03406	18.85438	0.02004	0.37105	11.11231	0.49721	4363.7655
1619	3	9	11.5	488.81139	0.2481	0.02869	0.05941	24.09904	0.09207	0.64712	10.08721	0.59375	3649.21515
1620	3	9	12.5	513.56245	0.25549	0.03015	0.06534	25.55139	0.11621	0.71177	10.41307	0.61849	3922.19725
1621	3	9	13.5	494.3781	0.25457	0.02902	0.06555	25.4321	0.11357	0.71406	10.47146	0.61649	3764.1226
1622	3	9	14.5	430.08789	0.23434	0.02525	0.04909	21.72627	0.05641	0.53477	10.27939	0.55136	3852.17295
1623	3	9	15.5	315.39234	0.19507	0.01851	0.01656	14.37331	0.0043	0.18035	10.73946	0.40845	4329.42935
1624	3	9	16.5	172.0584	0.17976	0.0101	0.00966	10.27075	0.00093	0.10521	10.64718	0.32596	2919.80435
1625	3	9	17.5	54.01422	0.16317	0.00317	0.0	0.0	0.0	0.0	9.2733	0.14352	627.10704
1640	3	10	8.5	115.09816	0.16676	0.00676	0.0	0.0	0.0	0.0	12.29049	0.14352	1710.42495
1641	3	10	9.5	268.58339	0.21034	0.01577	0.03458	17.54	0.00925	0.37665	12.63095	0.47159	3693.96515
1642	3	10	10.5	408.45629	0.21825	0.02398	0.03428	18.90592	0.02032	0.3734	11.22104	0.49821	4393.5219
1643	3	10	11.5	489.74952	0.24898	0.02875	0.06023	24.24675	0.09317	0.65613	10.23617	0.59631	3768.47155
1644	3	10	12.5	517.73896	0.25683	0.03039	0.06644	25.74475	0.11571	0.72377	10.70419	0.62171	3922.19725
1645	3	10	13.5	500.1381	0.25644	0.02936	0.06709	25.72559	0.11407	0.73079	10.8549	0.62139	3855.07225
1646	3	10	14.5	433.84784	0.24182	0.02547	0.05635	22.99634	0.07189	0.61382	10.63763	0.57434	3969.9797
1647	3	10	15.5	319.99335	0.19601	0.01878	0.01722	14.59351	0.00467	0.18761	10.89343	0.41288	4456.29795
1648	3	10	16.5	177.06278	0.17681	0.01039	0.00641	8.7738	0.00065	0.06987	10.71585	0.29643	2765.0824
1649	3	10	17.5	57.43922	0.16337	0.00337	0.0	0.0	0.0	0.0	9.51225	0.14352	601.3749
1664	3	11	8.5	118.05942	0.16693	0.00693	0.0	0.0	0.0	0.0	12.31093	0.14352	1623.9574
1665	3	11	9.5	271.64094	0.21009	0.01595	0.03414	17.50105	0.00907	0.37193	12.69006	0.47083	3738.71515
1666	3	11	10.5	409.97939	0.22066	0.02407	0.03659	19.34061	0.02475	0.39863	11.28642	0.50657	4393.5219
1667	3	11	11.5	492.13688	0.24992	0.02889	0.06103	24.41028	0.09487	0.66485	10.33018	0.59913	3716.34015
1668	3	11	12.5	518.11894	0.25758	0.03041	0.06716	25.85824	0.11514	0.73161	10.89752	0.62359	3898.3726
1669	3	11	13.5	498.6659	0.25704	0.02927	0.06777	25.8191	0.11335	0.73826	11.05776	0.62294	3853.6226
1670	3	11	14.5	434.38009	0.24589	0.0255	0.06039	23.74777	0.08263	0.65785	10.75581	0.58762	3992.3547
1671	3	11	15.5	321.2283	0.19659	0.01886	0.01773	14.7392	0.00514	0.19313	11.04385	0.41581	4486.05435
1672	3	11	16.5	178.84901	0.17637	0.0105	0.00588	8.47317	0.00061	0.06401	10.78784	0.29057	2778.51095
1673	3	11	17.5	58.70973	0.16345	0.00345	0.0	0.0	0.0	0.0	9.60937	0.14352	654.33432
1688	3	12	8.5	125.36798	0.16736	0.00736	0.0	0.0	0.0	0.0	12.19416	0.14352	1949.77797
1689	3	12	9.5	275.1487	0.21341	0.01615	0.03726	18.02615	0.00926	0.40587	13.18102	0.48112	4013.1469
1690	3	12	10.5	410.70618	0.22596	0.02411	0.04185	20.2546	0.03334	0.45591	11.49363	0.52396	4526.32225
1691	3	12	11.5	490.32655	0.2515	0.02878	0.06272	24.74711	0.10022	0.68319	10.58825	0.60491	3714.8905
1692	3	12	12.5	515.17423	0.2565	0.03024	0.06626	25.67706	0.11431	0.72177	10.65723	0.62058	3989.32225
1693	3	12	13.5	492.93643	0.25443	0.02894	0.06549	25.33026	0.10906	0.7134	10.54111	0.61478	3901.2719
1694	3	12	14.5	419.50355	0.23468	0.02462	0.05006	21.79284	0.05623	0.5453	10.45821	0.55258	3589.6047
1695	3	12	15.5	293.20925	0.18911	0.01721	0.0119	12.756	0.00323	0.12963	10.6242	0.37583	3495.6226
1696	3	12	16.5	173.93668	0.17552	0.01021	0.00531	8.01013	0.00053	0.05787	10.75446	0.2816	2753.17007
1697	3	12	17.5	58.93043	0.16346	0.00346	0.0	0.0	0.0	0.0	9.60613	0.14352	699.74129
1712	3	13	8.5	128.29216	0.17659	0.00753	0.00906	9.13911	0.001	0.09871	13.45656	0.30358	2124.36245
1713	3	13	9.5	279.29125	0.21412	0.01639	0.03773	18.1425	0.00936	0.41095	13.34838	0.48339	4102.6469
1714	3	13	10.5	414.20748	0.23641	0.02431	0.05209	22.03598	0.05449	0.56745	11.61209	0.55702	4571.07225
1715	3	13	11.5	493.07586	0.253	0.02894	0.06405	25.03338	0.10386	0.69775	10.75227	0.60977	3811.7719
1716	3	13	12.5	514.87064	0.25694	0.03022	0.06672	25.74191	0.11369	0.72679	10.79084	0.62166	3989.32225
1717	3	13	13.5	497.24589	0.25652	0.02919	0.06733	25.71033	0.11182	0.73342	10.94956	0.62114	3965.4976
1718	3	13	14.5	431.96657	0.24781	0.02536	0.06245	24.07994	0.08505	0.68029	11.17665	0.59342	4037.1047
1719	3	13	15.5	321.68795	0.19675	0.01888	0.01787	14.78442	0.00552	0.19468	11.24137	0.41672	4508.42935
1720	3	13	16.5	178.10665	0.17514	0.01045	0.00469	7.61682	0.00049	0.05107	10.88676	0.27404	2711.38595
1721	3	13	17.5	55.12863	0.16324	0.00324	0.0	0.0	0.0	0.0	9.2833	0.14352	573.40615
1856	3	19	8.5	130.43818	0.16805	0.00766	0.00039	0.0	4e-05	0.0043	12.2951	0.14352	2092.97442
1857	3	19	9.5	273.00376	0.20672	0.01603	0.03069	16.9293	0.00815	0.33434	12.94	0.45955	3656.59655
1858	3	19	10.5	338.81295	0.20017	0.01989	0.02028	15.58211	0.00977	0.22093	10.9861	0.43273	3158.41479
1859	3	19	11.5	329.0143	0.1836	0.01931	0.00429	9.15946	0.00166	0.0467	9.9596	0.30398	2952.42454
1862	3	19	14.5	255.17289	0.17506	0.01498	8e-05	0.0	2e-05	0.00084	9.72768	0.14352	2158.51662
1863	3	19	15.5	204.54319	0.17201	0.01201	0.0	0.0	0.0	0.0	10.17198	0.14352	1676.79587
1864	3	19	16.5	147.26953	0.16864	0.00864	0.0	0.0	0.0	0.0	10.61657	0.14352	1321.82832
1865	3	19	17.5	64.15754	0.16377	0.00377	0.0	0.0	0.0	0.0	9.96368	0.14352	596.16021
1880	3	20	8.5	106.29055	0.16624	0.00624	0.0	0.0	0.0	0.0	10.89217	0.14352	1491.09047
1881	3	20	9.5	179.87594	0.17061	0.01056	5e-05	0.0	1e-05	0.00057	10.49946	0.14352	2031.03859
1882	3	20	10.5	340.17216	0.19849	0.01997	0.01853	15.17664	0.00926	0.2018	10.9494	0.4246	3043.50734
1883	3	20	11.5	462.58371	0.25064	0.02715	0.06349	24.51388	0.08901	0.69157	11.07123	0.60091	3945.88874
1884	3	20	12.5	521.51241	0.25898	0.03061	0.06837	25.95736	0.10929	0.74472	11.24654	0.62523	4366.66479
1885	3	20	13.5	496.40353	0.25898	0.02914	0.06984	26.03773	0.10746	0.76076	11.7374	0.62656	4168.32225
1886	3	20	14.5	432.2414	0.2503	0.02537	0.06492	24.45546	0.0849	0.70723	11.59533	0.59991	3858.1047
1887	3	20	15.5	321.46958	0.19497	0.01887	0.0161	14.32792	0.00545	0.17535	11.90615	0.40754	4323.4976
1888	3	20	16.5	171.17182	0.17005	0.01005	0.0	0.0	0.0	0.0	11.01868	0.14352	1961.09862
1904	3	21	8.5	141.18378	0.1851	0.00829	0.01681	11.992	0.00234	0.18314	13.07272	0.36044	2282.4371
1905	3	21	9.5	251.68091	0.20145	0.01477	0.02667	15.9552	0.00709	0.29057	12.52525	0.44018	3268.84015
1906	3	21	10.5	386.5024	0.2376	0.02269	0.05491	22.30889	0.05879	0.59812	11.83409	0.56198	3940.09015
1907	3	21	11.5	483.11422	0.2546	0.02836	0.06624	25.20948	0.09761	0.7216	11.39297	0.61275	4010.11444
1908	3	21	12.5	519.87631	0.25967	0.03052	0.06916	26.08139	0.10899	0.75335	11.49541	0.62727	4236.8969
1909	3	21	13.5	494.63191	0.25892	0.02903	0.06988	26.02524	0.10703	0.76123	11.74873	0.62635	4214.5219
1910	3	21	14.5	427.63127	0.25011	0.0251	0.065	24.42041	0.08389	0.7081	11.66039	0.59931	3828.21515
1911	3	21	15.5	308.92242	0.19238	0.01813	0.01424	13.67791	0.00474	0.15513	11.7735	0.39443	3898.3726
1912	3	21	16.5	184.35282	0.17158	0.01082	0.00076	1.21557	0.00011	0.0083	11.54508	0.16181	2196.03612
1913	3	21	17.5	69.88178	0.1641	0.0041	0.0	0.0	0.0	0.0	10.39563	0.14352	679.21164
1960	3	23	16.5	152.54786	0.16895	0.00895	0.0	0.0	0.0	0.0	11.07985	0.14352	1421.85757
1961	3	23	17.5	75.74682	0.16445	0.00445	0.0	0.0	0.0	0.0	10.78004	0.14352	693.35614
1977	3	24	9.5	187.46166	0.171	0.011	0.0	0.0	0.0	0.0	10.93925	0.14352	1980.30802
1978	3	24	10.5	242.40389	0.17444	0.01423	0.00021	0.0	5e-05	0.00225	10.40141	0.14352	2180.16679
2008	3	25	16.5	157.04118	0.16922	0.00922	0.0	0.0	0.0	0.0	11.33049	0.14352	1520.96227
2009	3	25	17.5	80.12179	0.1647	0.0047	0.0	0.0	0.0	0.0	11.04223	0.14352	711.2912
2025	3	26	9.5	193.38865	0.17135	0.01135	0.0	0.0	0.0	0.0	11.01103	0.14352	1721.54587
2026	3	26	10.5	249.91364	0.17568	0.01467	0.00101	3.12804	0.00028	0.01099	10.58977	0.19277	2490.38434
2029	3	26	13.5	331.66687	0.18282	0.01947	0.00336	8.28185	0.00127	0.03655	10.45867	0.28685	2977.69884
2030	3	26	14.5	335.9017	0.18878	0.01972	0.00906	12.08246	0.00372	0.09869	11.15566	0.36226	3129.97489
2031	3	26	15.5	286.68894	0.18229	0.01683	0.00546	9.64243	0.00167	0.05949	11.65747	0.3135	2744.88187
2032	3	26	16.5	165.87722	0.16974	0.00974	0.0	0.0	0.0	0.0	11.54944	0.14352	1642.50854
2048	3	27	8.5	106.36658	0.16624	0.00624	0.0	0.0	0.0	0.0	10.53732	0.14352	1118.05215
2074	3	28	10.5	249.27661	0.17512	0.01463	0.00049	0.56617	0.00013	0.00531	10.74431	0.15189	2357.65057
2075	3	28	11.5	342.25862	0.18673	0.02009	0.00664	10.9301	0.00296	0.07237	10.92492	0.33912	3180.52349
2076	3	28	12.5	402.1726	0.24748	0.02361	0.06387	24.00683	0.07986	0.69576	11.05607	0.59215	3866.76709
2077	3	28	13.5	355.80103	0.22804	0.02089	0.04716	20.65519	0.04069	0.51369	10.89228	0.5315	3420.71674
2078	3	28	14.5	266.56917	0.17724	0.01565	0.00159	4.93375	0.00043	0.01733	10.60605	0.22419	2707.74902
2097	3	29	9.5	198.72154	0.17166	0.01166	0.0	0.0	0.0	0.0	11.31595	0.14352	1843.09214
2098	3	29	10.5	309.83279	0.18374	0.01819	0.00556	9.95127	0.00239	0.06052	11.52469	0.31962	2795.79954
2099	3	29	11.5	405.03773	0.2482	0.02378	0.06443	24.16051	0.08249	0.70182	11.28603	0.59482	3578.92454
2100	3	29	12.5	456.44576	0.25276	0.02679	0.06597	24.73135	0.08282	0.71864	11.50772	0.60464	4141.19884
2101	3	29	13.5	465.97435	0.25472	0.02735	0.06737	25.0415	0.08519	0.73382	11.84811	0.60991	4345.60629
2102	3	29	14.5	423.49663	0.25356	0.02486	0.0687	24.96084	0.0842	0.74838	12.54019	0.60854	3784.91479
2103	3	29	15.5	331.59479	0.23488	0.01946	0.05541	21.78198	0.0495	0.60361	13.14286	0.55238	4506.9797
2104	3	29	16.5	205.8755	0.1722	0.01208	0.00011	0.0	2e-05	0.00125	12.75758	0.14352	2059.54507
2105	3	29	17.5	89.03545	0.16523	0.00523	0.0	0.0	0.0	0.0	11.19846	0.14352	784.37236
2119	3	30	7.5	59.39846	0.16349	0.00349	0.0	0.0	0.0	0.0	10.31602	0.14352	861.56434
2120	3	30	8.5	161.50296	0.17782	0.00948	0.00834	9.5174	0.00133	0.09084	12.72288	0.31103	2381.60837
2121	3	30	9.5	271.40733	0.19674	0.01593	0.02081	14.98666	0.00645	0.22667	12.77239	0.42079	3141.97155
2122	3	30	10.5	324.76069	0.193	0.01906	0.01394	13.77647	0.00719	0.15185	11.72501	0.39642	3018.09989
2123	3	30	11.5	326.75967	0.18388	0.01918	0.0047	9.47608	0.00172	0.05116	10.95069	0.31022	3044.82384
2191	4	2	7.5	74.46136	0.16437	0.00437	0.0	0.0	0.0	0.0	11.29907	0.14352	1201.99168
2192	4	2	8.5	186.18317	0.19247	0.01093	0.02154	13.95684	0.00352	0.23467	14.43981	0.40006	2870.57225
2193	4	2	9.5	308.79833	0.21171	0.01813	0.03358	17.82907	0.0119	0.36579	14.42465	0.47727	4304.0219
2194	4	2	10.5	407.74175	0.25406	0.02393	0.07012	25.15168	0.08731	0.76386	13.30923	0.61178	4214.5219
2195	4	2	11.5	457.38262	0.2566	0.02685	0.06975	25.5037	0.09224	0.75984	12.57731	0.61769	4186.08199
2196	4	2	12.5	463.64963	0.25523	0.02722	0.06801	25.13511	0.0856	0.74089	12.11062	0.6115	4315.84989
2197	4	2	13.5	433.9983	0.2528	0.02548	0.06733	24.78807	0.08247	0.7334	11.99752	0.60561	4160.67454
2198	4	2	14.5	360.73963	0.23665	0.02118	0.05548	22.11187	0.05453	0.60432	12.11649	0.55841	3419.40024
2199	4	2	15.5	271.40227	0.18067	0.01593	0.00474	8.94891	0.00141	0.05167	12.11464	0.29985	2670.51374
2200	4	2	16.5	205.77914	0.17208	0.01208	0.0	0.0	0.0	0.0	13.28761	0.14352	1925.2285
2201	4	2	17.5	102.1587	0.166	0.006	0.0	0.0	0.0	0.0	12.91178	0.14352	1086.07245
2215	4	3	7.5	79.49835	0.16467	0.00467	0.0	0.0	0.0	0.0	11.88867	0.14352	1426.2731
2216	4	3	8.5	198.22395	0.19699	0.01164	0.02535	14.92189	0.00403	0.27618	15.15183	0.41948	3359.78979
2217	4	3	9.5	337.29176	0.23719	0.0198	0.05739	22.00634	0.04382	0.62513	15.24474	0.55648	5046.879
2218	4	3	10.5	442.21201	0.26099	0.02596	0.07503	26.40995	0.09887	0.81735	14.38614	0.63266	4955.92935
2219	4	3	11.5	510.00043	0.266	0.02994	0.07606	27.14105	0.10582	0.82853	14.03247	0.64444	4532.254
2220	4	3	12.5	531.65587	0.2673	0.03121	0.07609	27.1924	0.10355	0.8289	13.89166	0.64526	4750.07225
2221	4	3	13.5	508.97384	0.26635	0.02988	0.07647	27.08963	0.10158	0.833	14.06904	0.64362	4597.92935
2222	4	3	14.5	443.05314	0.26281	0.02601	0.07681	26.67839	0.09796	0.83668	14.54281	0.63701	4237.03005
2223	4	3	15.5	343.85737	0.25227	0.02018	0.07208	24.79731	0.07929	0.78519	14.43747	0.60576	4774.03005
2224	4	3	16.5	220.74222	0.17454	0.01296	0.00158	4.34883	0.00034	0.01726	14.40131	0.2138	2398.13595
2225	4	3	17.5	103.65865	0.16608	0.00608	0.0	0.0	0.0	0.0	13.15698	0.14352	1119.63495
2239	4	4	7.5	79.85355	0.16469	0.00469	0.0	0.0	0.0	0.0	11.72367	0.14352	1292.61221
2240	4	4	8.5	194.84633	0.1949	0.01144	0.02346	14.49344	0.00371	0.25553	14.98898	0.41087	3274.7719
2241	4	4	9.5	332.26229	0.23107	0.0195	0.05157	21.01846	0.03443	0.56176	15.04845	0.53828	4817.19725
2242	4	4	10.5	435.62458	0.25864	0.02557	0.07307	25.91173	0.09278	0.79597	13.95404	0.62448	4703.8726
2243	4	4	11.5	498.47169	0.26414	0.02926	0.07488	26.86096	0.10522	0.81564	13.61076	0.63996	4481.57225
2244	4	4	12.5	520.67611	0.26553	0.03056	0.07497	26.92805	0.10283	0.81667	13.51415	0.64103	4745.59015
2245	4	4	13.5	499.22487	0.26459	0.0293	0.07529	26.81962	0.10085	0.82011	13.66071	0.63929	4554.629
2246	4	4	14.5	435.05376	0.26099	0.02554	0.07545	26.38347	0.09717	0.82191	14.04454	0.63222	4123.57225
2247	4	4	15.5	339.29393	0.24064	0.01992	0.06072	22.68374	0.05495	0.66149	14.07561	0.56875	4378.66145
2248	4	4	16.5	218.94453	0.17304	0.01285	0.00019	0.0	4e-05	0.00206	14.03088	0.14352	2026.7074
2249	4	4	17.5	103.82424	0.16609	0.00609	0.0	0.0	0.0	0.0	12.98533	0.14352	1008.12236
2263	4	5	7.5	84.36868	0.16495	0.00495	0.0	0.0	0.0	0.0	12.13618	0.14352	1456.1449
2264	4	5	8.5	201.83202	0.19528	0.01185	0.02343	14.59472	0.00377	0.25524	15.20048	0.41291	3225.53979
2265	4	5	9.5	333.36411	0.23917	0.01957	0.0596	22.33705	0.04739	0.64925	15.43602	0.56249	4972.3726
2266	4	5	10.5	436.05915	0.25908	0.0256	0.07348	25.99037	0.09316	0.80049	14.04999	0.62578	4688.879
2267	4	5	11.5	497.99231	0.26429	0.02923	0.07505	26.87076	0.10447	0.81757	13.68603	0.64011	4456.16479
2268	4	5	12.5	518.87405	0.26557	0.03046	0.07511	26.93048	0.10235	0.8182	13.5702	0.64107	4729.1469
2269	4	5	13.5	497.98913	0.26465	0.02923	0.07542	26.82682	0.10051	0.82159	13.71612	0.63941	4548.69725
2270	4	5	14.5	433.7764	0.26104	0.02546	0.07558	26.38555	0.09673	0.8233	14.10727	0.63226	4010.2476
2271	4	5	15.5	339.02667	0.24163	0.0199	0.06173	22.84122	0.05618	0.67242	14.19608	0.57157	4281.78005
2272	4	5	16.5	220.98087	0.17449	0.01297	0.00152	4.20579	0.00033	0.01657	14.52026	0.21129	2163.92327
2273	4	5	17.5	105.81791	0.16621	0.00621	0.0	0.0	0.0	0.0	13.38169	0.14352	1114.40361
2274	4	5	18.5	23.64039	0.16139	0.00139	0.0	0.0	0.0	0.0	9.31704	0.14352	175.94637
2287	4	6	7.5	83.7985	0.16492	0.00492	0.0	0.0	0.0	0.0	11.9095	0.14352	1344.99472
2288	4	6	8.5	191.91013	0.1888	0.01127	0.01753	13.11197	0.00295	0.19097	14.46525	0.38302	3004.68909
2289	4	6	9.5	304.61291	0.20841	0.01788	0.03053	17.27237	0.0113	0.33254	14.37897	0.46633	4035.5219
2290	4	6	10.5	398.4182	0.25439	0.02339	0.071	25.20855	0.0865	0.77341	13.53693	0.61274	3946.0219
2291	4	6	11.5	446.89371	0.25647	0.02623	0.07024	25.45906	0.08946	0.76511	12.86084	0.61694	4163.70699
2292	4	6	12.5	462.32834	0.25727	0.02714	0.07013	25.50239	0.08827	0.76394	12.64109	0.61767	4366.53164
2293	4	6	13.5	443.99672	0.25612	0.02606	0.07006	25.32678	0.08556	0.76315	12.7366	0.61473	4254.65664
2294	4	6	14.5	387.73973	0.25254	0.02276	0.06978	24.82381	0.08133	0.7601	13.08775	0.60621	3693.83199
2295	4	6	15.5	303.18472	0.19065	0.0178	0.01285	13.19425	0.00474	0.13998	13.36234	0.38468	3054.05435
2296	4	6	16.5	199.90861	0.17185	0.01173	0.00011	0.0	2e-05	0.00122	13.38518	0.14352	2014.66192
2297	4	6	17.5	104.38901	0.16613	0.00613	0.0	0.0	0.0	0.0	12.97622	0.14352	996.93486
2311	4	7	7.5	87.95386	0.16516	0.00516	0.0	0.0	0.0	0.0	12.20897	0.14352	1369.61077
2312	4	7	8.5	198.83316	0.19416	0.01167	0.02249	14.35552	0.00374	0.24494	15.11362	0.40809	3274.7719
2313	4	7	9.5	322.7739	0.22022	0.01895	0.04128	19.27731	0.0211	0.44962	14.96391	0.50536	4483.0219
2314	4	7	10.5	424.67911	0.25798	0.02493	0.07306	25.76866	0.0894	0.79581	14.0565	0.62211	4392.07225
2315	4	7	11.5	495.12947	0.26379	0.02906	0.07473	26.76409	0.10335	0.81404	13.55407	0.6384	4523.28979
2316	4	7	12.5	517.66858	0.26631	0.03039	0.07592	27.04357	0.1016	0.827	13.88111	0.64289	4751.5219
2317	4	7	13.5	497.52562	0.26518	0.0292	0.07597	26.89968	0.09979	0.82759	13.92624	0.64058	4639.6469
2318	4	7	14.5	434.32253	0.26168	0.02549	0.07618	26.47568	0.09616	0.82989	14.33266	0.63373	4101.19725
2319	4	7	15.5	339.84665	0.25247	0.01995	0.07252	24.82642	0.07894	0.78997	14.4798	0.60626	4304.15505
2320	4	7	16.5	221.27343	0.17373	0.01299	0.00074	1.67388	0.00017	0.00808	14.70924	0.16899	2063.23577
2321	4	7	17.5	108.36022	0.16636	0.00636	0.0	0.0	0.0	0.0	13.55651	0.14352	1114.40361
2322	4	7	18.5	25.28181	0.16148	0.00148	0.0	0.0	0.0	0.0	9.45641	0.14352	176.40771
2335	4	8	7.5	90.5056	0.16531	0.00531	0.0	0.0	0.0	0.0	12.38039	0.14352	1489.7074
2336	4	8	8.5	204.35289	0.19419	0.012	0.02219	14.37459	0.00359	0.24177	15.42481	0.40848	3401.6405
2337	4	8	9.5	337.4784	0.24386	0.01981	0.06405	23.17887	0.05762	0.6977	15.36166	0.57759	4772.44725
2338	4	8	10.5	437.14624	0.26094	0.02566	0.07528	26.35014	0.09574	0.82006	14.47718	0.63168	4703.8726
2339	4	8	11.5	500.40154	0.26563	0.02937	0.07626	27.06508	0.10348	0.8307	14.14132	0.64323	4571.07225
2340	4	8	12.5	520.3372	0.26736	0.03054	0.07681	27.2057	0.1014	0.83673	14.24117	0.64547	4756.004
2341	4	8	13.5	506.00028	0.26805	0.0297	0.07835	27.35387	0.09996	0.85345	14.86527	0.64783	4748.6226
2342	4	8	14.5	443.06018	0.26523	0.02601	0.07922	27.0638	0.09684	0.86301	15.55669	0.64321	4216.1047
2343	4	8	15.5	345.98066	0.25798	0.02031	0.07767	25.75935	0.08244	0.84613	16.2417	0.62195	4772.5804
2344	4	8	16.5	227.27976	0.17785	0.01334	0.00451	8.21669	0.00101	0.04908	15.3437	0.28559	2217.61972
2345	4	8	17.5	114.63411	0.16673	0.00673	0.0	0.0	0.0	0.0	13.88493	0.14352	1142.37236
2346	4	8	18.5	27.79858	0.16163	0.00163	0.0	0.0	0.0	0.0	9.89295	0.14352	223.39433
2359	4	9	7.5	96.48593	0.16566	0.00566	0.0	0.0	0.0	0.0	12.60784	0.14352	1546.36972
2360	4	9	8.5	213.57639	0.19477	0.01254	0.02223	14.51718	0.00369	0.24221	15.65182	0.41135	3537.34015
2361	4	9	9.5	349.77606	0.24721	0.02053	0.06668	23.74856	0.06291	0.72632	15.48251	0.58764	4908.1469
2362	4	9	10.5	452.87375	0.26276	0.02658	0.07618	26.64413	0.09787	0.82982	14.58937	0.63646	4793.3726
2363	4	9	11.5	511.22039	0.26865	0.03001	0.07865	27.53701	0.10344	0.85671	15.11375	0.65072	4776.92935
2364	4	9	12.5	534.19584	0.26979	0.03136	0.07843	27.55406	0.10137	0.85438	14.85289	0.65099	5017.1226
2365	4	9	13.5	508.79294	0.26913	0.02987	0.07926	27.51865	0.09955	0.86339	15.27076	0.65043	4838.1226
2366	4	9	14.5	443.40518	0.26588	0.02603	0.07985	27.16524	0.09649	0.86982	15.8493	0.64483	4284.67935
2367	4	9	15.5	353.7377	0.25512	0.02076	0.07436	25.25811	0.08056	0.80997	14.88846	0.61357	4395.1047
2368	4	9	16.5	232.40524	0.17655	0.01364	0.00291	6.68014	0.00067	0.03167	14.99483	0.25627	2317.51582
2369	4	9	17.5	116.05886	0.16681	0.00681	0.0	0.0	0.0	0.0	13.72499	0.14352	1092.39102
2392	4	10	16.5	157.77285	0.16926	0.00926	0.0	0.0	0.0	0.0	12.24516	0.14352	1600.72442
2393	4	10	17.5	95.46459	0.1656	0.0056	0.0	0.0	0.0	0.0	12.29154	0.14352	894.69785
2407	4	11	7.5	71.96051	0.16422	0.00422	0.0	0.0	0.0	0.0	11.14734	0.14352	929.38087
2408	4	11	8.5	163.26973	0.16958	0.00958	0.0	0.0	0.0	0.0	13.1149	0.14352	1968.46227
2409	4	11	9.5	270.85881	0.19165	0.0159	0.01575	13.72131	0.00505	0.17152	13.32426	0.39531	2977.83199
2410	4	11	10.5	389.32274	0.2544	0.02285	0.07154	25.20995	0.08555	0.77934	13.61982	0.61276	3671.45699
2411	4	11	11.5	479.59655	0.26313	0.02815	0.07498	26.62607	0.0997	0.81678	13.78749	0.63617	4627.65024
2412	4	11	12.5	523.92003	0.26718	0.03075	0.07643	27.12046	0.10024	0.83253	14.04436	0.64411	4928.93909
2413	4	11	13.5	494.14798	0.26623	0.02901	0.07722	27.05589	0.09828	0.8412	14.44913	0.64308	4685.84655
2414	4	11	14.5	429.35121	0.26014	0.0252	0.07494	26.04032	0.08765	0.81629	14.30306	0.6266	4212.93909
2415	4	11	15.5	332.46966	0.25256	0.01952	0.07305	24.83723	0.07852	0.7957	14.55529	0.60644	3403.2233
2416	4	11	16.5	224.78641	0.17376	0.01319	0.00057	0.77915	0.00012	0.00617	14.44772	0.15511	2212.34622
2417	4	11	17.5	113.30475	0.16665	0.00665	0.0	0.0	0.0	0.0	14.07439	0.14352	1142.00995
2418	4	11	18.5	31.65979	0.16186	0.00186	0.0	0.0	0.0	0.0	9.2958	0.14352	232.05676
2431	4	12	7.5	101.22805	0.16594	0.00594	0.0	0.0	0.0	0.0	13.09086	0.14352	1615.01095
2432	4	12	8.5	216.04817	0.19277	0.01268	0.02008	14.07932	0.00333	0.21878	15.91002	0.40253	3625.3905
2433	4	12	9.5	345.52888	0.25721	0.02028	0.07693	25.67613	0.08413	0.83801	16.45866	0.62057	5128.9976
2434	4	12	10.5	445.42051	0.26527	0.02615	0.07913	27.11304	0.09825	0.86195	15.81812	0.644	4836.67295
2435	4	12	11.5	507.13188	0.26812	0.02977	0.07835	27.42665	0.1023	0.85351	14.95522	0.64898	4727.69725
2436	4	12	12.5	518.45308	0.26838	0.03043	0.07794	27.35499	0.10005	0.84907	14.69749	0.64784	4884.32225
2437	4	12	13.5	498.2514	0.26748	0.02925	0.07823	27.24586	0.0981	0.8522	14.87303	0.64611	4752.97155
2438	4	12	14.5	435.68125	0.2639	0.02557	0.07833	26.81419	0.09492	0.85322	15.19641	0.6392	4233.9976
2439	4	12	15.5	341.2403	0.25623	0.02003	0.07619	25.44582	0.08055	0.83	15.71316	0.61672	4058.03005
2440	4	12	16.5	228.33765	0.17739	0.0134	0.00399	7.77977	0.00089	0.04344	15.86539	0.27716	2284.0199
2441	4	12	17.5	116.08131	0.16681	0.00681	0.0	0.0	0.0	0.0	14.48578	0.14352	1209.13495
2442	4	12	18.5	32.91649	0.16193	0.00193	0.0	0.0	0.0	0.0	9.52346	0.14352	236.62281
2455	4	13	7.5	91.99181	0.1654	0.0054	0.0	0.0	0.0	0.0	12.46141	0.14352	1459.11077
2456	4	13	8.5	208.09572	0.18782	0.01222	0.01561	12.85096	0.00286	0.17	15.23709	0.37775	3162.8969
2457	4	13	9.5	343.20148	0.25561	0.02015	0.07547	25.41551	0.08344	0.82206	15.74602	0.61621	4727.69725
2458	4	13	10.5	440.18384	0.26299	0.02584	0.07715	26.70504	0.09671	0.84045	15.00557	0.63744	4636.7476
2459	4	13	11.5	500.24576	0.26707	0.02936	0.07771	27.25871	0.1014	0.8465	14.73364	0.64632	4706.7719
2460	4	13	12.5	518.76119	0.26861	0.03045	0.07816	27.38539	0.09976	0.85142	14.77688	0.64832	4818.6469
2461	4	13	13.5	505.06679	0.26885	0.02965	0.0792	27.44801	0.09822	0.86275	15.19924	0.64931	4824.57865
2462	4	13	14.5	444.12779	0.26581	0.02607	0.07974	27.10709	0.09499	0.86867	15.73638	0.6439	4262.30435
2463	4	13	15.5	343.79288	0.25813	0.02018	0.07795	25.76678	0.08137	0.84917	16.3877	0.62208	3700.03005
2464	4	13	16.5	230.93834	0.17769	0.01356	0.00413	7.94367	0.00094	0.04499	16.02289	0.28032	2350.42007
2465	4	13	17.5	121.32782	0.16712	0.00712	0.0	0.0	0.0	0.0	14.44989	0.14352	1187.12236
2466	4	13	18.5	33.47061	0.16196	0.00196	0.0	0.0	0.0	0.0	10.48355	0.14352	241.66462
2479	4	14	7.5	106.86756	0.16627	0.00627	0.0	0.0	0.0	0.0	14.01666	0.14352	1981.9574
2480	4	14	8.5	218.69498	0.18945	0.01284	0.01662	13.27311	0.00303	0.18101	15.69414	0.38627	3364.2719
2481	4	14	9.5	346.34232	0.25638	0.02033	0.07605	25.54452	0.08385	0.82842	15.88987	0.61837	4750.07225
2482	4	14	10.5	451.16606	0.26393	0.02648	0.07745	26.81795	0.09665	0.84363	15.04314	0.63926	4621.754
2483	4	14	11.5	520.5809	0.26752	0.03056	0.07696	27.22584	0.10109	0.8384	14.30103	0.64579	4852.98304
2484	4	14	12.5	532.66402	0.27118	0.03127	0.07992	27.75486	0.09954	0.87054	15.50492	0.65414	5084.2476
2485	4	14	13.5	511.43463	0.27035	0.03002	0.08033	27.66627	0.09773	0.87502	15.72625	0.65275	4927.6226
2486	4	14	14.5	444.52137	0.26735	0.02609	0.08125	27.37216	0.09496	0.88511	16.48381	0.64812	4462.2297
2487	4	14	15.5	354.6739	0.25731	0.02082	0.07649	25.61379	0.08113	0.83322	15.5552	0.61953	3541.82225
2488	4	14	16.5	233.0681	0.17874	0.01368	0.00506	8.72403	0.00117	0.0551	16.34775	0.29546	2372.07025
2489	4	14	17.5	122.85818	0.16721	0.00721	0.0	0.0	0.0	0.0	14.6776	0.14352	1175.57245
2490	4	14	18.5	34.9444	0.16205	0.00205	0.0	0.0	0.0	0.0	10.65703	0.14352	252.94272
2503	4	15	7.5	99.29661	0.16583	0.00583	0.0	0.0	0.0	0.0	12.77278	0.14352	1591.84455
2504	4	15	8.5	167.6287	0.17009	0.00984	0.00025	0.0	4e-05	0.00273	12.95651	0.14352	2075.78859
2533	4	16	13.5	293.27378	0.18114	0.01722	0.00393	8.48191	0.00115	0.04276	11.86707	0.29074	2931.49919
2534	4	16	14.5	285.32362	0.17917	0.01675	0.00242	6.63466	0.00067	0.02633	12.32655	0.25541	2927.01709
2535	4	16	15.5	239.75607	0.17436	0.01407	0.00028	0.0	7e-05	0.0031	12.86465	0.14352	2236.82912
2557	4	17	13.5	380.4441	0.25311	0.02233	0.07077	24.91419	0.08117	0.77095	13.02428	0.60775	3708.69244
2558	4	17	14.5	406.67934	0.25786	0.02387	0.07399	25.62356	0.08233	0.80599	14.12001	0.61969	4296.37419
2559	4	17	15.5	347.31038	0.25688	0.02039	0.07649	25.54554	0.08076	0.83324	15.45082	0.61839	3447.84015
2560	4	17	16.5	231.64963	0.17802	0.0136	0.00442	8.20386	0.001	0.04815	16.33717	0.28534	2337.71635
2561	4	17	17.5	122.05787	0.16716	0.00716	0.0	0.0	0.0	0.0	14.90302	0.14352	1220.32245
2562	4	17	18.5	37.59096	0.16221	0.00221	0.0	0.0	0.0	0.0	10.89469	0.14352	275.49893
2578	4	18	10.5	313.62324	0.19891	0.01841	0.0205	15.40675	0.01099	0.22335	13.18827	0.42921	3243.29954
2579	4	18	11.5	434.11751	0.25864	0.02548	0.07316	25.77046	0.08644	0.79696	13.86257	0.62214	4339.67454
2580	4	18	12.5	495.34748	0.26637	0.02908	0.0773	27.02382	0.09689	0.84201	14.5487	0.64257	4827.57559
2581	4	18	13.5	479.59383	0.26609	0.02815	0.07794	27.02017	0.09561	0.84899	14.8279	0.64251	4766.38234
2582	4	18	14.5	422.78364	0.26215	0.02482	0.07733	26.40003	0.08831	0.8424	15.13609	0.63249	4189.11444
2583	4	18	15.5	332.79625	0.25579	0.01954	0.07626	25.37055	0.07979	0.8307	15.61132	0.61546	3344.92935
2584	4	18	16.5	228.72319	0.17644	0.01343	0.00301	6.76086	0.00068	0.03282	16.1355	0.25779	2295.93222
2585	4	18	17.5	122.96209	0.16722	0.00722	0.0	0.0	0.0	0.0	14.92327	0.14352	1175.57245
2586	4	18	18.5	38.99775	0.16229	0.00229	0.0	0.0	0.0	0.0	11.00955	0.14352	286.3157
2696	4	23	8.5	150.45814	0.16883	0.00883	0.0	0.0	0.0	0.0	12.66871	0.14352	1642.50854
2697	4	23	9.5	237.92124	0.17435	0.01397	0.00039	0.0	0.0001	0.00422	13.34677	0.14352	2435.96307
2698	4	23	10.5	278.98387	0.17897	0.01638	0.00259	6.82449	0.0008	0.02827	12.90983	0.25898	2706.29954
2699	4	23	11.5	291.43214	0.18081	0.01711	0.0037	8.24537	0.00106	0.04031	12.35709	0.28615	3135.77349
2801	4	27	17.5	96.99308	0.16569	0.00569	0.0	0.0	0.0	0.0	12.43605	0.14352	827.93526
2818	4	28	10.5	339.74579	0.2527	0.01994	0.07276	24.91806	0.08129	0.79258	14.2602	0.60782	3556.54954
2819	4	28	11.5	453.92219	0.26454	0.02665	0.0779	26.76013	0.09139	0.84856	15.25693	0.63833	4702.15664
2820	4	28	12.5	512.48743	0.27069	0.03008	0.0806	27.63979	0.09523	0.87803	15.86939	0.65234	5170.58199
2821	4	28	13.5	489.92998	0.27034	0.02876	0.08158	27.65776	0.09392	0.88864	16.3622	0.65262	4908.1469
2822	4	28	14.5	431.94243	0.2671	0.02536	0.08175	27.25905	0.09079	0.89048	16.74034	0.64632	4408.5155
2823	4	28	15.5	341.87198	0.26127	0.02007	0.0812	26.27998	0.08145	0.88454	17.41921	0.63053	3516.54795
2824	4	28	16.5	239.39861	0.18065	0.01405	0.0066	9.81053	0.0016	0.0719	17.68153	0.31683	2365.29827
2825	4	28	17.5	137.15066	0.16805	0.00805	0.0	0.0	0.0	0.0	16.02649	0.14352	1108.41416
2826	4	28	18.5	50.58881	0.16297	0.00297	0.0	0.0	0.0	0.0	12.25614	0.14352	388.07093
2838	4	29	6.5	43.08004	0.16253	0.00253	0.0	0.0	0.0	0.0	10.97801	0.14352	388.61455
2839	4	29	7.5	117.7097	0.16691	0.00691	0.0	0.0	0.0	0.0	13.52131	0.14352	1251.51066
2840	4	29	8.5	201.22984	0.17233	0.01181	0.00052	0.13612	0.00011	0.00565	14.23298	0.14551	2215.24552
2841	4	29	9.5	261.76277	0.18209	0.01537	0.00673	10.16407	0.00218	0.0733	14.40576	0.32384	2666.03164
2842	4	29	10.5	307.4605	0.21256	0.01805	0.03451	18.01899	0.01795	0.37591	13.70263	0.48098	3217.89209
2843	4	29	11.5	307.47949	0.18583	0.01805	0.00778	11.21087	0.00282	0.08478	12.93262	0.34474	3195.51709
2872	4	30	16.5	177.93778	0.17044	0.01044	0.0	0.0	0.0	0.0	14.00123	0.14352	1766.29587
2873	4	30	17.5	119.97551	0.16704	0.00704	0.0	0.0	0.0	0.0	14.37899	0.14352	929.01846
2874	4	30	18.5	51.74829	0.16304	0.00304	0.0	0.0	0.0	0.0	11.92853	0.14352	391.97169
2910	5	2	6.5	52.81054	0.1631	0.0031	0.0	0.0	0.0	0.0	11.37358	0.14352	485.56585
2911	5	2	7.5	126.15131	0.16741	0.00741	0.0	0.0	0.0	0.0	14.80281	0.14352	1055.76278
2912	5	2	8.5	192.45181	0.17173	0.0113	0.00043	0.0	9e-05	0.0047	14.69928	0.14352	2171.28692
2914	5	2	10.5	286.95309	0.18071	0.01684	0.00386	8.3586	0.00117	0.04209	13.59083	0.28834	2955.32384
2915	5	2	11.5	361.9754	0.25448	0.02125	0.07323	25.15219	0.08112	0.79776	14.07918	0.61178	3935.34174
2916	5	2	12.5	421.13759	0.26011	0.02472	0.07539	25.93942	0.08251	0.82123	14.52814	0.62493	4382.84174
2917	5	2	13.5	403.99928	0.25934	0.02371	0.07562	25.84967	0.08198	0.82379	14.65505	0.62345	4165.02349
2918	5	2	14.5	357.51866	0.25685	0.02099	0.07586	25.52825	0.08108	0.8264	14.96237	0.6181	3872.69884
2919	5	2	15.5	288.70526	0.21758	0.01695	0.04063	18.87633	0.02344	0.44257	15.00777	0.49764	2737.63874
2920	5	2	16.5	188.48043	0.17106	0.01106	0.0	0.0	0.0	0.0	14.26444	0.14352	1752.86732
2934	5	3	6.5	54.28093	0.16319	0.00319	0.0	0.0	0.0	0.0	11.56908	0.14352	408.57173
2935	5	3	7.5	140.96079	0.16827	0.00827	0.0	0.0	0.0	0.0	16.22655	0.14352	1135.26239
2936	5	3	8.5	249.70427	0.1905	0.01466	0.01585	13.48105	0.00396	0.1726	18.32181	0.39046	4011.69725
2937	5	3	9.5	357.01322	0.26412	0.02096	0.08316	26.83438	0.08473	0.90591	18.41392	0.63953	4463.67935
2938	5	3	10.5	436.33931	0.26792	0.02561	0.0823	27.43775	0.0922	0.89654	17.16249	0.64915	4393.5219
2939	5	3	11.5	459.73565	0.26551	0.02699	0.07852	26.85182	0.08958	0.85533	15.50529	0.63981	4720.04954
2940	5	3	12.5	419.5475	0.2605	0.02463	0.07587	26.00728	0.08257	0.82647	14.77445	0.62605	4570.67279
2941	5	3	13.5	445.09912	0.26487	0.02613	0.07874	26.7343	0.08697	0.85775	15.64492	0.63792	4764.79954
2942	5	3	14.5	420.88914	0.26496	0.02471	0.08025	26.75391	0.0839	0.87418	16.48786	0.63823	4257.68909
2943	5	3	15.5	350.30459	0.26241	0.02056	0.08185	26.45387	0.08147	0.89161	17.59445	0.63337	3626.84015
2944	5	3	16.5	245.64439	0.18003	0.01442	0.00561	9.27497	0.00139	0.06115	17.92472	0.30625	2550.27885
2945	5	3	17.5	141.84766	0.16833	0.00833	0.0	0.0	0.0	0.0	16.32876	0.14352	1152.40605
2946	5	3	18.5	55.22281	0.16324	0.00324	0.0	0.0	0.0	0.0	12.56275	0.14352	427.40839
2993	5	5	17.5	103.95967	0.1661	0.0061	0.0	0.0	0.0	0.0	13.13692	0.14352	832.04607
3011	5	6	11.5	296.23365	0.18177	0.01739	0.00438	8.91663	0.00137	0.04769	13.1749	0.29922	3173.14209
3012	5	6	12.5	355.68237	0.25393	0.02088	0.07305	25.06022	0.08048	0.79574	13.96284	0.61023	3936.79139
3013	5	6	13.5	295.18574	0.18183	0.01733	0.00451	9.01254	0.00137	0.0491	13.2564	0.3011	2976.24919
3030	5	7	6.5	47.24596	0.16277	0.00277	0.0	0.0	0.0	0.0	10.92913	0.14352	388.61455
3031	5	7	7.5	123.9907	0.16728	0.00728	0.0	0.0	0.0	0.0	14.59642	0.14352	1021.47546
3032	5	7	8.5	223.50667	0.1777	0.01312	0.00458	8.22609	0.00095	0.04988	15.73086	0.28577	2734.73944
3033	5	7	9.5	321.98041	0.25617	0.0189	0.07727	25.47453	0.08098	0.84169	16.0946	0.6172	3270.15664
3034	5	7	10.5	389.68663	0.26097	0.02287	0.07809	26.22296	0.08468	0.85067	15.80597	0.6296	4093.54954
3035	5	7	11.5	424.22063	0.26163	0.0249	0.07673	26.18916	0.08328	0.8358	15.04573	0.62905	4406.66639
3036	5	7	12.5	423.46051	0.26064	0.02486	0.07578	26.00875	0.08218	0.82552	14.60071	0.62608	4323.09814
3037	5	7	13.5	437.32188	0.26325	0.02567	0.07758	26.39528	0.08276	0.8451	15.24128	0.63242	4682.54779
3038	5	7	14.5	408.3938	0.26302	0.02397	0.07905	26.42909	0.08218	0.86107	15.98253	0.63297	4184.49919
3039	5	7	15.5	340.80866	0.26171	0.02001	0.0817	26.34377	0.08114	0.88998	17.52831	0.63158	3516.41479
3040	5	7	16.5	245.35443	0.18032	0.0144	0.00592	9.46883	0.00147	0.06444	18.48769	0.31007	2578.5856
3041	5	7	17.5	153.01202	0.16898	0.00898	0.0	0.0	0.0	0.0	16.44173	0.14352	1242.63087
3042	5	7	18.5	63.60997	0.16373	0.00373	0.0	0.0	0.0	0.0	12.48237	0.14352	496.9512
3054	5	8	6.5	61.17315	0.16359	0.00359	0.0	0.0	0.0	0.0	12.73832	0.14352	486.48853
3055	5	8	7.5	151.82005	0.16891	0.00891	0.0	0.0	0.0	0.0	16.15792	0.14352	1224.36668
3056	5	8	8.5	256.62231	0.20197	0.01506	0.0269	16.07557	0.00951	0.29308	18.28891	0.44259	3811.7719
3057	5	8	9.5	362.4338	0.26423	0.02127	0.08295	26.82425	0.08427	0.90361	18.15591	0.63937	4107.129
3058	5	8	10.5	442.72785	0.27031	0.02599	0.08432	27.80205	0.09125	0.91851	18.16842	0.65488	4615.82225
3059	5	8	11.5	492.88153	0.27158	0.02893	0.08265	27.86002	0.09393	0.90035	16.94042	0.65578	4969.34015
3060	5	8	12.5	491.77336	0.27051	0.02887	0.08164	27.62904	0.09265	0.88932	16.45679	0.65217	4969.20699
3061	5	8	13.5	433.09378	0.2641	0.02542	0.07867	26.5713	0.0837	0.85702	15.81992	0.63528	4631.99919
3062	5	8	14.5	321.00412	0.25272	0.01884	0.07388	24.83285	0.07717	0.80478	14.80602	0.60637	3249.23129
3085	5	9	13.5	296.17214	0.18116	0.01739	0.00377	8.3668	0.00125	0.04108	13.36517	0.2885	2561.19987
3086	5	9	14.5	287.59587	0.18165	0.01688	0.00477	9.14089	0.00142	0.05191	14.08813	0.30362	2818.17454
3087	5	9	15.5	252.61131	0.17631	0.01483	0.00149	4.52716	0.00038	0.01618	14.50084	0.21695	2414.31289
3088	5	9	16.5	208.24563	0.17222	0.01222	0.0	0.0	0.0	0.0	15.60147	0.14352	1901.27069
3089	5	9	17.5	141.18031	0.16829	0.00829	0.0	0.0	0.0	0.0	15.0102	0.14352	1124.0416
3090	5	9	18.5	62.89803	0.16369	0.00369	0.0	0.0	0.0	0.0	13.05294	0.14352	494.33554
3102	5	10	6.5	62.61181	0.16368	0.00368	0.0	0.0	0.0	0.0	12.25	0.14352	482.78562
3103	5	10	7.5	149.63046	0.16878	0.00878	0.0	0.0	0.0	0.0	16.53933	0.14352	1213.9373
3104	5	10	8.5	253.16891	0.19064	0.01486	0.01577	13.50725	0.00423	0.17183	18.54505	0.39099	3811.7719
3105	5	10	9.5	354.57067	0.26391	0.02081	0.0831	26.78224	0.08401	0.90523	18.25502	0.63869	3971.42935
3106	5	10	10.5	439.67301	0.26924	0.02581	0.08343	27.60865	0.09072	0.90881	17.67857	0.65185	4503.94725
3107	5	10	11.5	495.43193	0.27269	0.02908	0.0836	28.03593	0.09378	0.91071	17.40533	0.65852	5040.94725
3108	5	10	12.5	511.77758	0.27388	0.03004	0.08383	28.13681	0.09285	0.91323	17.40221	0.66008	5176.6469
3109	5	10	13.5	491.03856	0.27307	0.02882	0.08424	28.06104	0.09166	0.9177	17.66225	0.65891	5131.8969
3110	5	10	14.5	432.01941	0.27015	0.02536	0.08479	27.71856	0.08845	0.92367	18.30936	0.65357	4644.129
3111	5	10	15.5	345.85856	0.26537	0.0203	0.08507	26.95948	0.08138	0.92669	19.27203	0.64154	3762.67295
3112	5	10	16.5	252.87038	0.23034	0.01484	0.0555	20.70699	0.03159	0.60454	19.13387	0.53247	2556.2106
3113	5	10	17.5	158.29099	0.16929	0.00929	0.0	0.0	0.0	0.0	16.86	0.14352	1297.44785
3114	5	10	18.5	66.89457	0.16393	0.00393	0.0	0.0	0.0	0.0	12.84731	0.14352	527.89804
3126	5	11	6.5	66.23418	0.16389	0.00389	0.0	0.0	0.0	0.0	12.39827	0.14352	516.8751
3127	5	11	7.5	152.31648	0.16894	0.00894	0.0	0.0	0.0	0.0	16.94333	0.14352	1247.4998
3128	5	11	8.5	257.20679	0.22481	0.0151	0.04972	19.86396	0.02568	0.54157	18.9044	0.51656	3966.94725
3129	5	11	9.5	357.39479	0.26544	0.02098	0.08446	27.03831	0.08404	0.92001	18.97286	0.6428	4098.29795
3130	5	11	10.5	445.4209	0.27079	0.02615	0.08464	27.86459	0.09095	0.92204	18.26779	0.65585	4615.82225
3131	5	11	11.5	505.35215	0.27463	0.02966	0.08496	28.32588	0.09365	0.92552	18.0399	0.66299	5196.1226
3132	5	11	12.5	523.95025	0.27585	0.03076	0.08509	28.4166	0.09272	0.92691	17.97936	0.66439	5421.32225
3133	5	11	13.5	503.75471	0.27486	0.02957	0.08529	28.30812	0.09153	0.92903	18.11537	0.66272	5287.07225
3134	5	11	14.5	442.17473	0.27213	0.02596	0.08618	28.03571	0.08892	0.93873	18.93126	0.65851	4681.4976
3135	5	11	15.5	352.90006	0.26752	0.02072	0.0868	27.31461	0.08154	0.94558	20.15754	0.6472	3834.28005
3136	5	11	16.5	255.50045	0.23945	0.015	0.06445	22.14642	0.04229	0.7021	19.44448	0.55903	2828.8547
3137	5	11	17.5	159.96981	0.16939	0.00939	0.0	0.0	0.0	0.0	17.03002	0.14352	1315.71204
3138	5	11	18.5	68.51222	0.16402	0.00402	0.0	0.0	0.0	0.0	12.97126	0.14352	541.88241
3150	5	12	6.5	67.45467	0.16396	0.00396	0.0	0.0	0.0	0.0	12.47611	0.14352	527.13992
3151	5	12	7.5	153.09171	0.16899	0.00899	0.0	0.0	0.0	0.0	16.94807	0.14352	1258.6873
3152	5	12	8.5	257.63659	0.22675	0.01512	0.05163	20.16157	0.02748	0.56243	18.94713	0.52221	3786.4976
3153	5	12	9.5	357.44651	0.26544	0.02098	0.08446	27.03529	0.08391	0.92007	18.95902	0.64275	4060.92935
3154	5	12	10.5	445.40259	0.27138	0.02615	0.08524	27.96422	0.09087	0.9285	18.55125	0.6574	4620.30435
3155	5	12	11.5	493.47615	0.27331	0.02897	0.08434	28.13845	0.09315	0.91874	17.79106	0.66011	5109.5219
3156	5	12	12.5	507.79845	0.27372	0.02981	0.08391	28.11704	0.09244	0.9141	17.45235	0.65977	5221.3969
3157	5	12	13.5	487.16343	0.27307	0.0286	0.08447	28.06994	0.09133	0.92018	17.78248	0.65905	5108.07225
3158	5	12	14.5	430.41936	0.2704	0.02527	0.08513	27.76179	0.08824	0.92738	18.49022	0.65425	4575.55435
3159	5	12	15.5	346.21036	0.26563	0.02032	0.08531	27.00643	0.08147	0.9293	19.36548	0.64229	3814.80435
3160	5	12	16.5	253.97898	0.23448	0.01491	0.05958	21.35282	0.03618	0.64898	19.25355	0.54448	2600.23577
3161	5	12	17.5	160.34059	0.16941	0.00941	0.0	0.0	0.0	0.0	16.98966	0.14352	1319.46043
3162	5	12	18.5	69.23366	0.16406	0.00406	0.0	0.0	0.0	0.0	13.03748	0.14352	550.27304
3174	5	13	6.5	68.19739	0.164	0.004	0.0	0.0	0.0	0.0	12.52403	0.14352	528.07924
3175	5	13	7.5	154.26845	0.16906	0.00906	0.0	0.0	0.0	0.0	17.03146	0.14352	1269.8748
3176	5	13	8.5	258.6225	0.23049	0.01518	0.05531	20.73842	0.03135	0.60247	19.01422	0.53306	3787.94725
3177	5	13	9.5	358.08144	0.26592	0.02102	0.0849	27.1134	0.08386	0.92481	19.17326	0.644	4038.55435
3178	5	13	10.5	446.08151	0.27209	0.02618	0.0859	28.084	0.09075	0.93576	18.90661	0.65926	4642.67935
3179	5	13	11.5	505.22853	0.27484	0.02966	0.08519	28.35084	0.09321	0.92797	18.15855	0.66338	5128.9976
3180	5	13	12.5	522.05804	0.27589	0.03064	0.08524	28.42371	0.09242	0.92858	18.05457	0.6645	5354.19725
3181	5	13	13.5	500.29498	0.27507	0.02937	0.0857	28.35741	0.09133	0.93357	18.36431	0.66348	5225.879
3182	5	13	14.5	439.12396	0.27232	0.02578	0.08655	28.07313	0.0886	0.94279	19.1612	0.65909	4703.8726
3183	5	13	15.5	353.38889	0.26766	0.02074	0.08691	27.33635	0.08153	0.94674	20.18577	0.64755	3947.6047
3184	5	13	16.5	256.70857	0.24071	0.01507	0.06564	22.3538	0.04387	0.71505	19.48252	0.5628	2671.8917
3185	5	13	17.5	161.68369	0.16949	0.00949	0.0	0.0	0.0	0.0	17.10341	0.14352	1336.24168
3186	5	13	18.5	67.81475	0.16398	0.00398	0.0	0.0	0.0	0.0	13.20901	0.14352	539.6458
3198	5	14	6.5	68.90433	0.16404	0.00404	0.0	0.0	0.0	0.0	12.56415	0.14352	536.46987
3199	5	14	7.5	155.30567	0.16912	0.00912	0.0	0.0	0.0	0.0	17.03923	0.14352	1275.83096
3200	5	14	8.5	258.78709	0.23086	0.01519	0.05567	20.79758	0.03179	0.60646	19.01248	0.53416	3923.6469
3201	5	14	9.5	357.80263	0.26585	0.021	0.08485	27.10273	0.08388	0.92427	19.12025	0.64383	4077.3726
3202	5	14	10.5	445.76446	0.27191	0.02617	0.08575	28.04545	0.09052	0.93406	18.80924	0.65867	4568.17295
3203	5	14	11.5	503.72241	0.2747	0.02957	0.08514	28.32814	0.09309	0.92741	18.12369	0.66303	5242.32225
3204	5	14	12.5	521.67073	0.27582	0.03062	0.0852	28.41091	0.09237	0.92806	18.01155	0.6643	5398.94725
3205	5	14	13.5	499.55016	0.27494	0.02932	0.08562	28.32897	0.09107	0.93263	18.30488	0.66304	5197.57225
3206	5	14	14.5	439.23854	0.27211	0.02578	0.08633	28.0277	0.08843	0.94036	19.01948	0.65839	4709.80435
3207	5	14	15.5	350.08228	0.26656	0.02055	0.08601	27.15532	0.08143	0.93691	19.71901	0.64467	3785.04795
3208	5	14	16.5	256.16473	0.24057	0.01504	0.06554	22.32801	0.04361	0.71392	19.52489	0.56233	2700.19845
3209	5	14	17.5	157.14239	0.16922	0.00922	0.0	0.0	0.0	0.0	17.66714	0.14352	1314.6248
3210	5	14	18.5	68.82506	0.16404	0.00404	0.0	0.0	0.0	0.0	13.28269	0.14352	550.09183
3222	5	15	6.5	70.30274	0.16413	0.00413	0.0	0.0	0.0	0.0	12.69902	0.14352	550.45424
3223	5	15	7.5	156.49314	0.16919	0.00919	0.0	0.0	0.0	0.0	17.1438	0.14352	1290.76686
3224	5	15	8.5	259.63378	0.23504	0.01524	0.0598	21.44984	0.03661	0.65138	19.11358	0.54628	3786.4976
3225	5	15	9.5	358.59583	0.26625	0.02105	0.0852	27.16782	0.0838	0.92813	19.31203	0.64487	4062.379
3226	5	15	10.5	444.9412	0.27203	0.02612	0.08591	28.06469	0.09038	0.93588	18.90753	0.65896	4615.82225
3227	5	15	11.5	489.84663	0.27286	0.02875	0.0841	28.06053	0.0927	0.91614	17.65585	0.6589	5081.21515
3228	5	15	12.5	486.06014	0.27137	0.02853	0.08284	27.77461	0.09153	0.90239	17.03333	0.65445	5015.40664
3229	5	15	13.5	468.4541	0.27072	0.0275	0.08322	27.70363	0.09012	0.90656	17.28595	0.65334	4969.20699
3230	5	15	14.5	416.40163	0.26735	0.02444	0.08291	27.15526	0.08355	0.90315	17.71718	0.64467	4363.63234
3231	5	15	15.5	338.1728	0.26304	0.01985	0.08319	26.56587	0.08092	0.90624	18.27223	0.63519	3610.3969
3232	5	15	16.5	248.76115	0.1954	0.0146	0.02079	14.71932	0.0072	0.22652	18.10124	0.41541	2383.916
3233	5	15	17.5	156.09616	0.16916	0.00916	0.0	0.0	0.0	0.0	17.2648	0.14352	1292.61221
3234	5	15	18.5	69.38856	0.16407	0.00407	0.0	0.0	0.0	0.0	13.16197	0.14352	553.81138
3247	5	16	7.5	110.25719	0.16647	0.00647	0.0	0.0	0.0	0.0	13.29518	0.14352	888.34598
3248	5	16	8.5	183.56455	0.17078	0.01078	0.0	0.0	0.0	0.0	14.42647	0.14352	1846.78284
3249	5	16	9.5	249.19555	0.17651	0.01463	0.00188	5.32063	0.00045	0.02046	14.6742	0.23117	2503.08807
3272	5	17	8.5	169.9198	0.16997	0.00997	0.0	0.0	0.0	0.0	14.01991	0.14352	1676.07104
3273	5	17	9.5	252.12093	0.17593	0.0148	0.00113	3.55691	0.00032	0.01232	14.74571	0.20006	2391.21307
3274	5	17	10.5	310.26627	0.241	0.01821	0.06279	22.60306	0.05139	0.68397	14.58447	0.5673	3219.34174
3275	5	17	11.5	347.8777	0.25429	0.02042	0.07387	25.08607	0.07915	0.80465	14.32422	0.61067	3264.09174
3276	5	17	12.5	360.0865	0.25534	0.02114	0.07421	25.26388	0.08034	0.80834	14.2277	0.61367	3820.43429
3277	5	17	13.5	347.29996	0.25466	0.02039	0.07428	25.14584	0.07919	0.80911	14.37252	0.61168	3549.03499
3278	5	17	14.5	308.69867	0.2431	0.01812	0.06498	22.94269	0.05416	0.70787	14.69481	0.57338	3067.19884
3279	5	17	15.5	247.37499	0.17779	0.01452	0.00327	7.30224	0.00085	0.03567	14.97121	0.26803	2488.93469
3280	5	17	16.5	194.23751	0.1714	0.0114	0.0	0.0	0.0	0.0	15.15477	0.14352	1634.28692
3281	5	17	17.5	127.61885	0.16749	0.00749	0.0	0.0	0.0	0.0	14.41787	0.14352	983.07732
3282	5	17	18.5	59.78029	0.16351	0.00351	0.0	0.0	0.0	0.0	12.0656	0.14352	460.77304
3294	5	18	6.5	63.07409	0.1637	0.0037	0.0	0.0	0.0	0.0	12.74558	0.14352	489.48325
3295	5	18	7.5	144.29449	0.16847	0.00847	0.0	0.0	0.0	0.0	15.69118	0.14352	1168.42918
3296	5	18	8.5	242.17062	0.18118	0.01422	0.00696	10.04802	0.00153	0.07584	17.78381	0.32154	3047.98944
3297	5	18	9.5	337.77034	0.26201	0.01983	0.08218	26.4512	0.08262	0.89521	17.92254	0.63333	3537.34015
3298	5	18	10.5	403.68117	0.26442	0.0237	0.08073	26.74031	0.08441	0.87939	16.82021	0.63801	4279.93094
3299	5	18	11.5	430.76406	0.26447	0.02529	0.07919	26.64743	0.08401	0.8626	16.04885	0.63651	4363.49919
3300	5	18	12.5	414.40718	0.2622	0.02433	0.07788	26.28162	0.08223	0.84833	15.48662	0.63056	4534.98464
3301	5	18	13.5	363.53278	0.25729	0.02134	0.07595	25.5844	0.08108	0.82731	14.86476	0.61904	3930.85964
3302	5	18	14.5	281.88722	0.18121	0.01655	0.00466	9.00025	0.00135	0.05081	14.43373	0.30086	2961.25559
3321	5	19	9.5	250.7287	0.17645	0.01472	0.00173	5.05498	0.00045	0.01889	14.68264	0.22637	2515.00039
3322	5	19	10.5	366.13248	0.2608	0.02149	0.07931	26.21255	0.08353	0.86396	16.34858	0.62943	3756.47489
3323	5	19	11.5	460.30101	0.26847	0.02702	0.08145	27.29093	0.08774	0.88725	16.76157	0.64683	4793.10629
3324	5	19	12.5	502.64222	0.27356	0.02951	0.08405	28.0719	0.09131	0.91562	17.56346	0.65908	5155.58839
3325	5	19	13.5	483.08184	0.273	0.02836	0.08464	28.04017	0.09021	0.92199	17.8845	0.65858	5125.96515
3326	5	19	14.5	426.49612	0.27014	0.02504	0.0851	27.68794	0.08686	0.92703	18.5012	0.65309	4527.7719
3327	5	19	15.5	349.58434	0.26538	0.02052	0.08486	26.94719	0.08123	0.92441	19.02105	0.64134	3810.32225
3328	5	19	16.5	244.02047	0.17738	0.01432	0.00306	7.01578	0.00079	0.03334	17.83057	0.26259	2259.33727
3329	5	19	17.5	135.63277	0.16796	0.00796	0.0	0.0	0.0	0.0	15.58337	0.14352	1088.99616
3342	5	20	6.5	70.31197	0.16413	0.00413	0.0	0.0	0.0	0.0	12.63806	0.14352	550.45424
3343	5	20	7.5	141.46745	0.1683	0.0083	0.0	0.0	0.0	0.0	15.1732	0.14352	1117.68973
3344	5	20	8.5	195.12196	0.17145	0.01145	0.0	0.0	0.0	0.0	14.97737	0.14352	1990.04587
3367	5	21	7.5	121.62207	0.16714	0.00714	0.0	0.0	0.0	0.0	13.95953	0.14352	939.44785
3368	5	21	8.5	226.17815	0.17528	0.01328	0.00201	5.26221	0.00045	0.02185	16.51625	0.23011	2629.2496
3369	5	21	9.5	339.26204	0.26208	0.01991	0.08216	26.45177	0.08238	0.89499	17.89151	0.63334	3426.91479
3370	5	21	10.5	407.85755	0.26593	0.02394	0.08199	26.98392	0.08459	0.89312	17.3991	0.64193	4209.90664
3371	5	21	11.5	450.00507	0.26753	0.02642	0.08112	27.12758	0.08584	0.88364	16.74651	0.64423	4833.37419
3372	5	21	12.5	455.55874	0.26688	0.02674	0.08014	26.95498	0.08412	0.87296	16.28006	0.64147	4784.14209
3373	5	21	13.5	449.62677	0.26751	0.02639	0.08112	27.07788	0.08409	0.88364	16.69676	0.64343	4812.44884
3374	5	21	14.5	405.50387	0.26683	0.0238	0.08303	27.08161	0.08275	0.90447	17.82496	0.64349	4189.11444
3375	5	21	15.5	338.90561	0.26378	0.01989	0.08389	26.6818	0.08072	0.91384	18.60952	0.63707	3610.3969
3376	5	21	16.5	254.33136	0.23608	0.01493	0.06115	21.59967	0.03782	0.66609	19.43071	0.54904	2615.9542
3377	5	21	17.5	161.38648	0.16947	0.00947	0.0	0.0	0.0	0.0	17.97085	0.14352	1358.42327
3378	5	21	18.5	75.33006	0.16442	0.00442	0.0	0.0	0.0	0.0	13.90878	0.14352	614.60116
3445	5	24	13.5	361.47655	0.25879	0.02122	0.07757	25.83035	0.08124	0.84495	15.59363	0.62313	3866.76709
3446	5	24	14.5	379.10457	0.26345	0.02225	0.0812	26.56802	0.08177	0.88452	17.10889	0.63523	4024.97489
3447	5	24	15.5	341.99344	0.26388	0.02008	0.0838	26.68796	0.08062	0.91287	18.5477	0.63717	3476.1469
3448	5	24	16.5	248.25929	0.21879	0.01457	0.04422	18.9136	0.02093	0.48171	18.77604	0.49836	2397.34455
3449	5	24	17.5	161.93668	0.16951	0.00951	0.0	0.0	0.0	0.0	17.359	0.14352	1344.99472
3450	5	24	18.5	75.34206	0.16442	0.00442	0.0	0.0	0.0	0.0	14.19029	0.14352	611.42523
3462	5	25	6.5	78.17428	0.16459	0.00459	0.0	0.0	0.0	0.0	13.30271	0.14352	622.79394
3463	5	25	7.5	163.62893	0.16961	0.00961	0.0	0.0	0.0	0.0	17.67469	0.14352	1366.6449
3464	5	25	8.5	264.23298	0.24211	0.01551	0.0666	22.60322	0.04573	0.72554	19.49605	0.5673	3787.94725
3465	5	25	9.5	357.18882	0.26696	0.02097	0.086	27.26951	0.08308	0.93679	19.64179	0.64649	3926.67935
3466	5	25	10.5	441.31657	0.27292	0.02591	0.08701	28.18395	0.08875	0.94784	19.50533	0.66081	4615.82225
3467	5	25	11.5	500.0703	0.2758	0.02935	0.08644	28.4872	0.09145	0.94163	18.8159	0.66547	5243.7719
3468	5	25	12.5	517.49372	0.27692	0.03038	0.08654	28.57464	0.09069	0.9427	18.75536	0.6668	5467.5219
3469	5	25	13.5	497.22681	0.27607	0.02919	0.08689	28.49819	0.08972	0.94648	19.00179	0.66564	5243.7719
3470	5	25	14.5	438.66632	0.27329	0.02575	0.08754	28.19582	0.08705	0.9536	19.70211	0.66099	4705.32225
3471	5	25	15.5	353.32935	0.26816	0.02074	0.08742	27.42135	0.08131	0.95226	20.4233	0.64889	3986.42295
3472	5	25	16.5	264.20688	0.24714	0.01551	0.07163	23.42105	0.05155	0.78028	20.07474	0.58188	2723.29827
3473	5	25	17.5	167.34012	0.16982	0.00982	0.0	0.0	0.0	0.0	18.27974	0.14352	1421.85757
3474	5	25	18.5	78.85392	0.16463	0.00463	0.0	0.0	0.0	0.0	14.24164	0.14352	648.34487
3486	5	26	6.5	78.8756	0.16463	0.00463	0.0	0.0	0.0	0.0	13.36885	0.14352	631.18456
3487	5	26	7.5	164.39332	0.16965	0.00965	0.0	0.0	0.0	0.0	17.72451	0.14352	1370.3356
3488	5	26	8.5	264.84294	0.24264	0.01555	0.06709	22.68997	0.04636	0.73087	19.56931	0.56886	3765.57225
3489	5	26	9.5	356.61451	0.26697	0.02093	0.08604	27.2691	0.083	0.93722	19.6756	0.64648	3875.9976
3490	5	26	10.5	439.49094	0.27314	0.0258	0.08734	28.22695	0.08863	0.95147	19.73343	0.66147	4667.95365
3491	5	26	11.5	494.82844	0.27593	0.02905	0.08688	28.52538	0.09109	0.94643	19.12329	0.66605	5236.3905
3492	5	26	12.5	511.78358	0.27701	0.03004	0.08697	28.6171	0.09065	0.94734	19.03979	0.66745	5360.129
3493	5	26	13.5	492.08408	0.27616	0.02889	0.08728	28.53676	0.08966	0.95074	19.26401	0.66622	5173.7476
3494	5	26	14.5	436.86968	0.27347	0.02564	0.08783	28.23034	0.08692	0.95673	19.9151	0.66152	4681.4976
3495	5	26	15.5	353.12781	0.26813	0.02073	0.0874	27.41787	0.08138	0.95203	20.39348	0.64884	3837.17935
3496	5	26	16.5	264.61625	0.24714	0.01553	0.07161	23.42367	0.05162	0.78003	20.04171	0.58192	2686.04507
3497	5	26	17.5	168.2854	0.16988	0.00988	0.0	0.0	0.0	0.0	18.26836	0.14352	1422.5824
3498	5	26	18.5	79.46599	0.16466	0.00466	0.0	0.0	0.0	0.0	14.26095	0.14352	654.11982
3510	5	27	6.5	74.81496	0.16439	0.00439	0.0	0.0	0.0	0.0	13.55988	0.14352	603.59487
3511	5	27	7.5	161.08281	0.16946	0.00946	0.0	0.0	0.0	0.0	17.13768	0.14352	1336.6041
3512	5	27	8.5	245.40068	0.18122	0.01441	0.00681	10.00598	0.0016	0.0742	18.16046	0.3207	3162.8969
3513	5	27	9.5	318.73716	0.2601	0.01871	0.08139	26.11543	0.08104	0.88657	17.77194	0.62783	3182.23944
3514	5	27	10.5	369.42567	0.26149	0.02169	0.07981	26.3059	0.08322	0.86935	16.4934	0.63096	3895.07384
3515	5	27	11.5	379.97718	0.25981	0.0223	0.07751	25.97197	0.08177	0.84432	15.4973	0.62547	3897.97314
3516	5	27	12.5	348.9466	0.25618	0.02048	0.0757	25.4191	0.08053	0.8246	14.92683	0.61628	3863.73464
3517	5	27	13.5	319.38947	0.24731	0.01875	0.06856	23.74016	0.064	0.74685	14.45664	0.58749	3111.94884
3563	5	29	11.5	290.61853	0.18205	0.01706	0.00499	9.34957	0.00162	0.0544	14.11811	0.30772	2932.94884
3564	5	29	12.5	347.65364	0.25601	0.02041	0.0756	25.38615	0.08022	0.82357	14.90547	0.61572	3886.10964
3565	5	29	13.5	423.48127	0.26584	0.02486	0.08098	26.86232	0.08287	0.88214	16.78679	0.63998	4675.16639
3566	5	29	14.5	419.06181	0.26896	0.0246	0.08436	27.40145	0.08308	0.91891	18.34951	0.64858	4389.03979
3567	5	29	15.5	356.37449	0.26737	0.02092	0.08645	27.27588	0.08135	0.94173	19.76819	0.64659	3922.19725
3568	5	29	16.5	252.9884	0.22526	0.01485	0.05041	19.92871	0.02657	0.54916	18.60662	0.51779	2495.791
3569	5	29	17.5	138.90333	0.16815	0.00815	0.0	0.0	0.0	0.0	15.67377	0.14352	1116.96491
3607	5	31	7.5	124.92307	0.16733	0.00733	0.0	0.0	0.0	0.0	14.27488	0.14352	1050.53145
3608	5	31	8.5	209.10719	0.17231	0.01227	4e-05	0.0	1e-05	0.00043	15.58141	0.14352	2003.47442
3609	5	31	9.5	293.02148	0.24976	0.0172	0.07256	24.10613	0.06527	0.79046	16.47672	0.59387	2933.08199
3610	5	31	10.5	322.70652	0.25403	0.01894	0.07508	25.01858	0.07678	0.8179	15.39326	0.60952	3426.64849
3611	5	31	11.5	315.23186	0.24724	0.0185	0.06874	23.7602	0.06536	0.74879	14.64985	0.58784	3420.71674
3630	6	1	6.5	81.33264	0.16477	0.00477	0.0	0.0	0.0	0.0	13.95293	0.14352	660.55175
3631	6	1	7.5	166.17607	0.16975	0.00975	0.0	0.0	0.0	0.0	17.88715	0.14352	1400.2074
3632	6	1	8.5	253.32453	0.22508	0.01487	0.05021	19.88723	0.02571	0.54699	19.22453	0.51701	3340.44725
3633	6	1	9.5	320.82771	0.26034	0.01883	0.08151	26.14709	0.08093	0.88792	17.75486	0.62836	3223.95699
3634	6	1	10.5	407.27737	0.26687	0.02391	0.08296	27.12488	0.08403	0.90375	17.80696	0.64418	4320.33199
3635	6	1	11.5	471.20072	0.2723	0.02766	0.08464	27.94708	0.08958	0.92205	18.07201	0.65714	5034.88234
3636	6	1	12.5	496.9184	0.27602	0.02917	0.08685	28.50541	0.09006	0.94612	19.06055	0.66575	5282.59015
3637	6	1	13.5	478.2166	0.27361	0.02807	0.08554	28.12298	0.08868	0.93177	18.37925	0.65987	5066.22155
3638	6	1	14.5	423.15795	0.27017	0.02484	0.08533	27.61051	0.08362	0.92956	18.80534	0.65188	4456.16479
3639	6	1	15.5	344.41949	0.2651	0.02022	0.08488	26.8831	0.08043	0.9246	19.07962	0.64031	3497.07225
3640	6	1	16.5	248.80359	0.21382	0.0146	0.03921	18.12947	0.01733	0.42714	18.38684	0.48314	2327.9785
3641	6	1	17.5	154.31794	0.16906	0.00906	0.0	0.0	0.0	0.0	16.33532	0.14352	1269.84151
3642	6	1	18.5	74.06812	0.16435	0.00435	0.0	0.0	0.0	0.0	13.36267	0.14352	589.41264
3654	6	2	6.5	74.38538	0.16437	0.00437	0.0	0.0	0.0	0.0	13.91178	0.14352	606.21054
3655	6	2	7.5	156.51346	0.16919	0.00919	0.0	0.0	0.0	0.0	17.04768	0.14352	1297.08543
3656	6	2	8.5	229.14734	0.17657	0.01345	0.00312	6.89463	0.00073	0.03399	17.23994	0.26031	2518.09942
3657	6	2	9.5	292.1881	0.25084	0.01715	0.07369	24.30278	0.06695	0.80275	16.65326	0.59728	2845.03164
3658	6	2	10.5	379.01438	0.26366	0.02225	0.08141	26.65704	0.08363	0.88679	17.20537	0.63667	3649.08199
3659	6	2	11.5	446.25196	0.26856	0.02619	0.08237	27.2929	0.0851	0.89724	17.31545	0.64686	4788.62419
3660	6	2	12.5	474.51828	0.27228	0.02785	0.08442	27.91451	0.08913	0.91966	17.91561	0.65663	5013.95699
3661	6	2	13.5	436.75372	0.26742	0.02564	0.08178	27.08328	0.08315	0.89083	17.05715	0.64352	4790.07384
3662	6	2	14.5	355.1272	0.26118	0.02085	0.08034	26.2236	0.08104	0.87515	16.79289	0.62961	3692.24919
3663	6	2	15.5	255.04983	0.17701	0.01497	0.00204	5.69025	0.00051	0.02224	15.43796	0.2379	2522.49719
3682	6	3	10.5	302.71137	0.24593	0.01777	0.06816	23.4678	0.06078	0.74248	15.3161	0.5827	3177.62419
3683	6	3	11.5	395.53015	0.26301	0.02322	0.07979	26.4636	0.08232	0.86916	16.41882	0.63353	4263.58534
3684	6	3	12.5	447.72668	0.26997	0.02628	0.08369	27.59776	0.08787	0.91165	17.7459	0.65167	4655.95699
3685	6	3	13.5	437.3102	0.26776	0.02567	0.08209	27.14543	0.08332	0.89427	17.20072	0.64451	4524.60629
3686	6	3	14.5	392.59403	0.26571	0.02305	0.08266	26.91194	0.08206	0.90046	17.68323	0.64078	4117.37419
3687	6	3	15.5	322.2203	0.26202	0.01891	0.08311	26.39137	0.07995	0.90534	18.38609	0.63235	3253.84655
3688	6	3	16.5	235.39713	0.17439	0.01382	0.00057	0.93375	0.00015	0.0062	17.65533	0.15747	2083.30315
3689	6	3	17.5	150.85294	0.16886	0.00886	0.0	0.0	0.0	0.0	16.25548	0.14352	1223.97098
3690	6	3	18.5	75.52562	0.16443	0.00443	0.0	0.0	0.0	0.0	13.43121	0.14352	600.78135
3706	6	4	10.5	265.8653	0.17729	0.01561	0.00168	5.11829	0.00048	0.01829	14.49716	0.22751	2615.34989
3707	6	4	11.5	321.80868	0.24892	0.01889	0.07003	24.0322	0.06693	0.76286	14.67667	0.59259	3443.09174
3709	6	4	13.5	363.49353	0.25881	0.02134	0.07747	25.82426	0.08106	0.8439	15.46854	0.62303	3801.09174
3710	6	4	14.5	343.69832	0.25879	0.02018	0.07861	25.83026	0.08017	0.85637	16.10839	0.62313	3689.21674
3711	6	4	15.5	298.41075	0.25594	0.01752	0.07842	25.28894	0.07524	0.85425	17.03739	0.61409	3007.58839
3712	6	4	16.5	217.94856	0.17279	0.01279	0.0	0.0	0.0	0.0	16.11828	0.14352	1868.43302
3713	6	4	17.5	136.17784	0.16799	0.00799	0.0	0.0	0.0	0.0	14.98538	0.14352	1078.53348
3726	6	5	6.5	68.15017	0.164	0.004	0.0	0.0	0.0	0.0	12.96176	0.14352	536.65107
3727	6	5	7.5	147.58378	0.16866	0.00866	0.0	0.0	0.0	0.0	15.81837	0.14352	1202.71651
3728	6	5	8.5	237.90584	0.1774	0.01397	0.00343	7.35497	0.00084	0.03738	17.68443	0.26903	2737.7719
3729	6	5	9.5	340.5877	0.26204	0.01999	0.08205	26.41148	0.0816	0.89374	17.72799	0.63268	3401.50734
3730	6	5	10.5	417.6958	0.26881	0.02452	0.08429	27.42489	0.08433	0.91818	18.37601	0.64895	4233.86444
3731	6	5	11.5	479.7913	0.27378	0.02816	0.08562	28.16798	0.08954	0.93263	18.52221	0.66056	5128.86444
3732	6	5	12.5	506.00583	0.27706	0.0297	0.08735	28.62794	0.08974	0.95157	19.26046	0.66761	5355.6469
3733	6	5	13.5	457.85721	0.27083	0.02688	0.08395	27.66022	0.08641	0.91449	17.84431	0.65266	4967.62419
3734	6	5	14.5	372.18865	0.26315	0.02185	0.0813	26.52373	0.08148	0.88559	17.12483	0.63451	3892.17454
3735	6	5	15.5	257.91482	0.17793	0.01514	0.0028	6.85487	0.00078	0.03045	15.5534	0.25956	2500.12219
3808	6	8	16.5	180.41867	0.17059	0.01059	0.0	0.0	0.0	0.0	15.10463	0.14352	1655.14569
3809	6	8	17.5	137.14159	0.16805	0.00805	0.0	0.0	0.0	0.0	15.0208	0.14352	1084.48965
3810	6	8	18.5	76.22859	0.16447	0.00447	0.0	0.0	0.0	0.0	13.44554	0.14352	606.3751
3832	6	9	16.5	180.13024	0.17057	0.01057	0.0	0.0	0.0	0.0	15.05015	0.14352	1465.7496
3833	6	9	17.5	136.66356	0.16802	0.00802	0.0	0.0	0.0	0.0	14.96546	0.14352	1084.12723
3834	6	9	18.5	77.45315	0.16455	0.00455	0.0	0.0	0.0	0.0	13.31432	0.14352	611.40859
3848	6	10	8.5	175.05374	0.17028	0.01028	0.0	0.0	0.0	0.0	14.67895	0.14352	1462.78372
3849	6	10	9.5	255.08815	0.17607	0.01497	0.0011	3.49207	0.00031	0.01198	15.55261	0.19895	2535.13434
3850	6	10	10.5	309.75163	0.24656	0.01818	0.06837	23.51017	0.05858	0.74481	15.28896	0.58345	2886.74919
3851	6	10	11.5	344.16962	0.25584	0.0202	0.07563	25.33301	0.07927	0.82389	14.98685	0.61483	3526.65999
3852	6	10	12.5	345.10333	0.25725	0.02026	0.077	25.59733	0.08069	0.83874	15.4817	0.61926	3756.34174
3853	6	10	13.5	393.20503	0.26372	0.02308	0.08064	26.57612	0.08203	0.87843	16.72725	0.63536	4429.04139
3854	6	10	14.5	390.79623	0.26624	0.02294	0.0833	27.00376	0.08198	0.90738	17.99113	0.64225	4053.28164
3855	6	10	15.5	347.58567	0.2655	0.0204	0.0851	26.9433	0.08043	0.92697	19.14468	0.64128	3516.41479
3856	6	10	16.5	240.55623	0.17528	0.01412	0.00116	3.49599	0.00029	0.01261	17.67369	0.19901	2181.7496
3857	6	10	17.5	137.75772	0.16809	0.00809	0.0	0.0	0.0	0.0	15.11531	0.14352	1095.31473
3871	6	11	7.5	151.24586	0.16888	0.00888	0.0	0.0	0.0	0.0	15.72111	0.14352	1229.56473
3872	6	11	8.5	253.71464	0.22761	0.01489	0.05272	20.27538	0.02817	0.5743	19.00473	0.52436	3167.379
3873	6	11	9.5	358.54014	0.26745	0.02105	0.0864	27.31084	0.08201	0.94118	19.86578	0.64714	3772.95365
3874	6	11	10.5	434.80907	0.2739	0.02552	0.08838	28.31197	0.08641	0.96273	20.40379	0.66278	4615.82225
3875	6	11	11.5	494.53115	0.27652	0.02903	0.08749	28.58711	0.08966	0.95308	19.40956	0.66699	5182.57865
3876	6	11	12.5	502.46739	0.27826	0.02949	0.08877	28.85905	0.08938	0.96697	20.15675	0.67112	5397.4976
3877	6	11	13.5	484.64446	0.27627	0.02845	0.08783	28.56315	0.08856	0.9567	19.62761	0.66663	5175.19725
3878	6	11	14.5	432.34269	0.27323	0.02538	0.08785	28.17088	0.08571	0.95695	19.9595	0.66061	4726.2476
3879	6	11	15.5	360.26542	0.26796	0.02115	0.08681	27.36079	0.08116	0.94569	19.96072	0.64793	3922.19725
3880	6	11	16.5	270.83743	0.26066	0.0159	0.08476	26.08575	0.07615	0.92333	20.1883	0.62735	2743.43222
3881	6	11	17.5	178.08122	0.17045	0.01045	0.0	0.0	0.0	0.0	18.67693	0.14352	1523.99472
3882	6	11	18.5	89.54362	0.16526	0.00526	0.0	0.0	0.0	0.0	15.15184	0.14352	751.8971
3894	6	12	6.5	83.8693	0.16492	0.00492	0.0	0.0	0.0	0.0	14.22278	0.14352	688.5205
3895	6	12	7.5	166.95094	0.1698	0.0098	0.0	0.0	0.0	0.0	18.14112	0.14352	1422.5824
3896	6	12	8.5	252.98021	0.22933	0.01485	0.05448	20.53176	0.02973	0.59342	19.41112	0.52918	3097.3547
3897	6	12	9.5	319.33545	0.26113	0.01874	0.08238	26.28185	0.08113	0.89744	18.09222	0.63056	3198.68269
3898	6	12	10.5	366.99053	0.26245	0.02154	0.0809	26.44548	0.08246	0.88132	17.0206	0.63323	3672.90664
3899	6	12	11.5	377.54485	0.26053	0.02216	0.07836	26.09126	0.0818	0.85365	15.8247	0.62744	4041.28499
3900	6	12	12.5	347.24438	0.25678	0.02038	0.07639	25.5087	0.08028	0.83218	15.20938	0.61778	3826.36604
3901	6	12	13.5	345.6536	0.25646	0.02029	0.07617	25.44368	0.07978	0.82978	15.08465	0.61669	3730.93429
3902	6	12	14.5	314.49269	0.25058	0.01846	0.07212	24.24493	0.06591	0.78565	15.44304	0.59628	3088.12419
3903	6	12	15.5	257.43264	0.17828	0.01511	0.00317	7.30407	0.00084	0.03452	15.70619	0.26807	2667.48112
3904	6	12	16.5	183.9947	0.1708	0.0108	0.0	0.0	0.0	0.0	15.05977	0.14352	1544.78692
3918	6	13	6.5	67.49883	0.16396	0.00396	0.0	0.0	0.0	0.0	12.81106	0.14352	531.05732
3919	6	13	7.5	134.48693	0.16789	0.00789	0.0	0.0	0.0	0.0	15.0509	0.14352	1072.57732
3920	6	13	8.5	197.08502	0.17157	0.01157	0.0	0.0	0.0	0.0	15.83469	0.14352	1914.69925
3921	6	13	9.5	250.19362	0.17592	0.01469	0.00124	3.8464	0.00031	0.01346	15.48349	0.20504	2315.86644
3922	6	13	10.5	310.31283	0.24708	0.01822	0.06886	23.60434	0.05951	0.75012	15.39771	0.58511	3110.49919
3923	6	13	11.5	343.71466	0.25599	0.02018	0.07581	25.36268	0.07948	0.82581	15.04136	0.61533	3759.24104
3924	6	13	12.5	344.59	0.25717	0.02023	0.07694	25.58096	0.08048	0.83816	15.47988	0.61898	3671.32384
3925	6	13	13.5	338.14372	0.25643	0.01985	0.07658	25.4586	0.08005	0.83418	15.32885	0.61694	3718.97314
3926	6	13	14.5	306.54056	0.25035	0.01799	0.07236	24.25773	0.06777	0.78819	15.55552	0.5965	3290.94884
3927	6	13	15.5	258.72195	0.17772	0.01519	0.00253	6.50494	0.00066	0.02757	15.50349	0.25298	2621.28164
3928	6	13	16.5	195.37305	0.17147	0.01147	0.0	0.0	0.0	0.0	15.69745	0.14352	1633.49552
3929	6	13	17.5	131.07142	0.16769	0.00769	0.0	0.0	0.0	0.0	14.50017	0.14352	1015.5193
3942	6	14	6.5	67.42501	0.16396	0.00396	0.0	0.0	0.0	0.0	12.81456	0.14352	531.05732
3943	6	14	7.5	151.08635	0.16887	0.00887	0.0	0.0	0.0	0.0	16.45622	0.14352	1251.21491
3944	6	14	8.5	251.39832	0.21977	0.01476	0.04501	19.06534	0.02122	0.49035	18.80951	0.50128	3274.7719
3945	6	14	9.5	351.97143	0.26661	0.02066	0.08595	27.17419	0.08179	0.93627	19.66052	0.64497	3653.69725
3946	6	14	10.5	421.47906	0.2706	0.02474	0.08586	27.73736	0.08488	0.93527	19.12487	0.65387	4393.5219
3947	6	14	11.5	460.66639	0.2722	0.02704	0.08516	27.94177	0.08837	0.92763	18.42889	0.65706	4885.63874
3948	6	14	12.5	460.645	0.27156	0.02704	0.08452	27.80957	0.08769	0.92068	18.08468	0.65499	4791.65664
3949	6	14	13.5	436.65855	0.26785	0.02563	0.08222	27.1555	0.08316	0.89563	17.236	0.64467	4657.27349
3950	6	14	14.5	375.60377	0.26426	0.02205	0.08221	26.69738	0.08158	0.8955	17.51846	0.63732	3801.22489
3951	6	14	15.5	299.7631	0.25607	0.0176	0.07847	25.30091	0.07499	0.8548	17.06072	0.61429	2797.38234
3952	6	14	16.5	228.87405	0.17347	0.01343	4e-05	0.0	1e-05	0.00041	17.39311	0.14352	2002.02477
3953	6	14	17.5	158.44481	0.1693	0.0093	0.0	0.0	0.0	0.0	16.12409	0.14352	1279.15037
3954	6	14	18.5	85.42286	0.16501	0.00501	0.0	0.0	0.0	0.0	14.15678	0.14352	689.60769
3966	6	15	6.5	83.51937	0.1649	0.0049	0.0	0.0	0.0	0.0	14.21683	0.14352	688.5205
3967	6	15	7.5	168.09227	0.16987	0.00987	0.0	0.0	0.0	0.0	18.4881	0.14352	1433.7699
3968	6	15	8.5	265.55264	0.24712	0.01559	0.07153	23.43344	0.05228	0.7792	19.97811	0.5821	3523.92935
3969	6	15	9.5	352.97991	0.26784	0.02072	0.08712	27.39426	0.08194	0.94905	20.2735	0.64846	3965.4976
3970	6	15	10.5	425.51714	0.27207	0.02498	0.08709	27.99434	0.0853	0.9487	19.76469	0.65787	4483.0219
3971	6	15	11.5	471.42418	0.27367	0.02767	0.086	28.18389	0.08929	0.9368	18.72345	0.66081	4948.41479
3972	6	15	12.5	472.99115	0.27289	0.02776	0.08513	28.01126	0.08859	0.92732	18.29607	0.65814	5076.59989
3973	6	15	13.5	460.64452	0.27264	0.02704	0.0856	27.99787	0.08769	0.93244	18.57115	0.65793	4923.00734
3974	6	15	14.5	416.64007	0.27005	0.02446	0.0856	27.59655	0.08303	0.93244	18.97283	0.65166	4502.36444
3975	6	15	15.5	347.35697	0.26613	0.02039	0.08574	27.06157	0.08067	0.93402	19.49276	0.64317	3628.28979
3976	6	15	16.5	267.23944	0.25997	0.01569	0.08428	25.94733	0.07546	0.91811	20.08394	0.62507	2785.55435
3977	6	15	17.5	178.62423	0.17049	0.01049	0.0	0.0	0.0	0.0	18.88204	0.14352	1534.4574
3978	6	15	18.5	97.19106	0.16571	0.00571	0.0	0.0	0.0	0.0	16.01532	0.14352	821.28756
4039	6	18	7.5	119.07302	0.16699	0.00699	0.0	0.0	0.0	0.0	14.22061	0.14352	926.77741
4040	6	18	8.5	187.02305	0.17098	0.01098	0.0	0.0	0.0	0.0	15.33997	0.14352	1680.55315
4041	6	18	9.5	250.73721	0.17702	0.01472	0.0023	6.06852	0.00057	0.02508	15.60523	0.24487	2521.77237
4042	6	18	10.5	310.45684	0.24753	0.01822	0.06931	23.6753	0.05991	0.75497	15.4589	0.58635	3247.64849
4043	6	18	11.5	345.40314	0.25632	0.02028	0.07604	25.42012	0.07979	0.82834	15.10437	0.61629	3798.05929
4044	6	18	12.5	346.07372	0.25755	0.02031	0.07724	25.64583	0.08076	0.84136	15.57434	0.62006	3868.21674
4045	6	18	13.5	346.89912	0.25669	0.02036	0.07633	25.48272	0.07997	0.8315	15.1266	0.61734	3760.69069
4046	6	18	14.5	316.04479	0.25156	0.01855	0.07301	24.43002	0.06778	0.79528	15.52201	0.59947	3249.09814
4047	6	18	15.5	258.4981	0.1771	0.01517	0.00193	5.52663	0.00049	0.02101	15.72197	0.23491	2503.08807
4048	6	18	16.5	230.46339	0.17377	0.01353	0.00024	0.0	6e-05	0.00265	16.81463	0.14352	2060.13675
4049	6	18	17.5	164.98875	0.16968	0.00968	0.0	0.0	0.0	0.0	17.271	0.14352	1386.77885
4050	6	18	18.5	91.57175	0.16538	0.00538	0.0	0.0	0.0	0.0	15.20026	0.14352	772.42675
4069	6	19	13.5	317.59949	0.25172	0.01864	0.07308	24.57604	0.07271	0.79604	15.07159	0.60198	3487.84174
4070	6	19	14.5	326.37506	0.25754	0.01916	0.07839	25.64007	0.07969	0.85388	16.16711	0.61997	3440.19244
4071	6	19	15.5	302.60902	0.25732	0.01776	0.07956	25.5564	0.07714	0.86661	17.21129	0.61857	3022.58199
4072	6	19	16.5	243.05818	0.17609	0.01427	0.00182	5.14264	0.00047	0.01988	17.98607	0.22795	2206.36565
4073	6	19	17.5	171.2936	0.17005	0.01005	0.0	0.0	0.0	0.0	17.37385	0.14352	1435.21955
4074	6	19	18.5	91.66147	0.16538	0.00538	0.0	0.0	0.0	0.0	15.28496	0.14352	772.42675
4110	6	21	6.5	82.57047	0.16485	0.00485	0.0	0.0	0.0	0.0	14.18839	0.14352	677.69541
4111	6	21	7.5	166.44115	0.16977	0.00977	0.0	0.0	0.0	0.0	18.41834	0.14352	1422.5824
4112	6	21	8.5	262.77663	0.24319	0.01542	0.06776	22.75925	0.04653	0.73817	19.86254	0.5701	3449.42295
4113	6	21	9.5	349.03306	0.26701	0.02049	0.08652	27.2501	0.08175	0.94246	19.98093	0.64618	3719.3726
4114	6	21	10.5	420.72815	0.27074	0.0247	0.08605	27.76195	0.08471	0.93733	19.20513	0.65425	4438.2719
4115	6	21	11.5	469.10963	0.27342	0.02754	0.08589	28.1279	0.08862	0.93557	18.73261	0.65994	4949.86444
4116	6	21	12.5	479.68378	0.27396	0.02816	0.0858	28.18179	0.08895	0.93465	18.59203	0.66077	5016.98944
4117	6	21	13.5	470.04581	0.27374	0.02759	0.08614	28.15832	0.08801	0.93839	18.78534	0.66041	5085.56409
4118	6	21	14.5	428.8305	0.27157	0.02517	0.0864	27.83795	0.08385	0.94115	19.25263	0.65544	4483.0219
4119	6	21	15.5	358.36188	0.26834	0.02104	0.08731	27.42931	0.08104	0.95105	20.23826	0.64902	3898.3726
4120	6	21	16.5	276.99162	0.26198	0.01626	0.08572	26.32614	0.07671	0.93378	20.52219	0.63129	2785.55435
4121	6	21	17.5	188.59486	0.17107	0.01107	0.0	0.0	0.0	0.0	19.49432	0.14352	1623.9574
4122	6	21	18.5	100.69732	0.16591	0.00591	0.0	0.0	0.0	0.0	16.32312	0.14352	856.69541
4123	6	21	19.5	31.99006	0.16188	0.00188	0.0	0.0	0.0	0.0	11.03458	0.14352	247.34897
4135	6	22	7.5	117.31438	0.16689	0.00689	0.0	0.0	0.0	0.0	14.1705	0.14352	995.35206
4136	6	22	8.5	185.22145	0.17087	0.01087	0.0	0.0	0.0	0.0	15.31474	0.14352	1676.79587
4137	6	22	9.5	250.0597	0.17538	0.01468	0.0007	1.85258	0.00017	0.00765	15.37068	0.17184	2440.37842
4138	6	22	10.5	277.67878	0.18322	0.0163	0.00692	10.44683	0.00224	0.07536	15.2121	0.32947	2907.67454
4140	6	22	12.5	263.49644	0.17868	0.01547	0.00321	7.41848	0.00076	0.03496	13.82567	0.27025	2886.74919
4158	6	23	6.5	67.49251	0.16396	0.00396	0.0	0.0	0.0	0.0	12.96442	0.14352	531.05732
4159	6	23	7.5	148.77463	0.16873	0.00873	0.0	0.0	0.0	0.0	16.31162	0.14352	1234.43366
4160	6	23	8.5	246.69833	0.20687	0.01448	0.03238	16.95281	0.01237	0.35278	18.76843	0.46001	2982.44725
4161	6	23	9.5	345.43216	0.26651	0.02028	0.08623	27.17153	0.0817	0.93938	19.86335	0.64493	3720.82225
4162	6	23	10.5	412.64015	0.26982	0.02422	0.0856	27.61671	0.08429	0.93245	19.05568	0.65197	4283.09655
4163	6	23	11.5	445.51016	0.27004	0.02615	0.08389	27.54517	0.08509	0.91387	18.06517	0.65085	4718.59989
4164	6	23	12.5	444.14933	0.26832	0.02607	0.08225	27.22641	0.08383	0.89596	17.26058	0.6458	4806.51709
4165	6	23	13.5	391.76756	0.2632	0.023	0.08021	26.49205	0.08187	0.8737	16.52511	0.63399	4090.51709
4166	6	23	14.5	304.01427	0.25025	0.01785	0.07241	24.23827	0.06754	0.78877	15.65231	0.59616	3426.64849
4168	6	23	16.5	183.37003	0.17076	0.01076	0.0	0.0	0.0	0.0	15.21684	0.14352	1523.13675
4169	6	23	17.5	140.98185	0.16828	0.00828	0.0	0.0	0.0	0.0	15.14501	0.14352	1118.05215
4170	6	23	18.5	82.86903	0.16486	0.00486	0.0	0.0	0.0	0.0	13.62212	0.14352	655.68278
4183	6	24	7.5	133.42606	0.16783	0.00783	0.0	0.0	0.0	0.0	15.40031	0.14352	1072.54403
4184	6	24	8.5	227.52405	0.17475	0.01336	0.0014	3.9978	0.00035	0.01524	17.26399	0.20766	2295.14082
4185	6	24	9.5	324.62078	0.26226	0.01906	0.08321	26.45895	0.08098	0.90639	18.45719	0.63345	3203.16479
4186	6	24	10.5	413.06339	0.26941	0.02425	0.08516	27.54169	0.08422	0.92771	18.82656	0.65079	4280.06409
4187	6	24	11.5	474.78071	0.27431	0.02787	0.08644	28.27516	0.08907	0.94161	18.95746	0.66221	4969.34015
4188	6	24	12.5	500.49056	0.27646	0.02938	0.08709	28.53497	0.08917	0.94864	19.15828	0.6662	5394.46515
4189	6	24	13.5	488.46936	0.27708	0.02867	0.08841	28.6831	0.08845	0.96305	19.91787	0.66845	5218.4976
4190	6	24	14.5	438.39289	0.27473	0.02573	0.08899	28.42075	0.086	0.96942	20.57453	0.66445	4793.3726
4191	6	24	15.5	361.76529	0.26993	0.02124	0.08869	27.7077	0.08128	0.96613	21.05514	0.6534	4038.55435
4192	6	24	16.5	276.53773	0.26312	0.01623	0.08689	26.54584	0.07742	0.94648	21.06051	0.63487	3007.8547
4193	6	24	17.5	187.4597	0.171	0.011	0.0	0.0	0.0	0.0	19.91905	0.14352	1626.92327
4194	6	24	18.5	102.32156	0.16601	0.00601	0.0	0.0	0.0	0.0	16.2237	0.14352	866.39997
4195	6	24	19.5	32.27606	0.16189	0.00189	0.0	0.0	0.0	0.0	11.11278	0.14352	250.14585
4206	6	25	6.5	79.12045	0.16464	0.00464	0.0	0.0	0.0	0.0	14.2743	0.14352	651.32295
4207	6	25	7.5	164.84588	0.16968	0.00968	0.0	0.0	0.0	0.0	18.31241	0.14352	1403.8981
4208	6	25	8.5	259.05249	0.24383	0.01521	0.06863	22.84852	0.04692	0.74756	20.2234	0.5717	3695.54795
4209	6	25	9.5	346.14213	0.26783	0.02032	0.08751	27.40155	0.0817	0.95323	20.57072	0.64858	3792.42935
4210	6	25	10.5	424.35851	0.27331	0.02491	0.0884	28.21137	0.08517	0.96292	20.54166	0.66123	4591.9976
4211	6	25	11.5	472.96016	0.27503	0.02776	0.08726	28.42095	0.0893	0.95057	19.44923	0.66445	5018.57225
4212	6	25	12.5	489.64762	0.27556	0.02874	0.08681	28.42656	0.08911	0.9457	19.06244	0.66454	5130.44725
4213	6	25	13.5	477.28573	0.27562	0.02802	0.0876	28.47509	0.08836	0.95426	19.53257	0.66528	5152.82225
4214	6	25	14.5	438.29103	0.27425	0.02573	0.08852	28.32764	0.08581	0.96425	20.27253	0.66302	4726.2476
4215	6	25	15.5	360.94368	0.26965	0.02119	0.08846	27.65941	0.08126	0.96363	20.91014	0.65264	3807.42295
4216	6	25	16.5	277.70774	0.26261	0.0163	0.08631	26.45227	0.07724	0.94022	20.756	0.63334	3024.29795
4217	6	25	17.5	187.37723	0.171	0.011	0.0	0.0	0.0	0.0	19.83105	0.14352	1626.19845
4218	6	25	18.5	102.3134	0.16601	0.00601	0.0	0.0	0.0	0.0	16.25717	0.14352	867.88291
4219	6	25	19.5	32.30296	0.1619	0.0019	0.0	0.0	0.0	0.0	11.11064	0.14352	250.05525
4230	6	26	6.5	78.13107	0.16459	0.00459	0.0	0.0	0.0	0.0	13.95179	0.14352	639.39398
4231	6	26	7.5	153.45404	0.16901	0.00901	0.0	0.0	0.0	0.0	17.11293	0.14352	1280.6666
4232	6	26	8.5	203.70771	0.17196	0.01196	0.0	0.0	0.0	0.0	16.02617	0.14352	1946.08727
4233	6	26	9.5	189.04198	0.1711	0.0111	0.0	0.0	0.0	0.0	14.09618	0.14352	1855.00447
4240	6	26	16.5	184.21808	0.17081	0.01081	0.0	0.0	0.0	0.0	15.21826	0.14352	1756.55802
4241	6	26	17.5	141.8951	0.16833	0.00833	0.0	0.0	0.0	0.0	15.15297	0.14352	1123.6459
4242	6	26	18.5	82.90526	0.16487	0.00487	0.0	0.0	0.0	0.0	13.62184	0.14352	659.79364
4258	6	27	10.5	299.72788	0.24617	0.01759	0.06857	23.48774	0.06029	0.74699	15.5348	0.58305	2974.79954
4259	6	27	11.5	391.56525	0.26345	0.02298	0.08046	26.54373	0.08227	0.87649	16.7426	0.63483	4185.94884
4260	6	27	12.5	445.17152	0.27029	0.02613	0.08415	27.63294	0.08681	0.91672	18.02875	0.65223	4770.73129
4261	6	27	13.5	411.01529	0.26569	0.02413	0.08156	26.85753	0.08233	0.88845	17.07394	0.6399	4302.30594
4262	6	27	14.5	347.00187	0.25945	0.02037	0.07908	25.93961	0.08048	0.86147	16.24856	0.62494	3801.09174
4263	6	27	15.5	262.38003	0.17833	0.0154	0.00293	7.0728	0.0008	0.03188	15.63038	0.26367	2622.73112
4264	6	27	16.5	199.54802	0.17171	0.01171	0.0	0.0	0.0	0.0	15.69959	0.14352	1725.23657
4265	6	27	17.5	134.71928	0.16791	0.00791	0.0	0.0	0.0	0.0	14.78712	0.14352	1045.3334
4283	6	28	11.5	288.49445	0.1829	0.01693	0.00596	9.99412	0.00199	0.06493	14.43517	0.32047	3249.09814
4284	6	28	12.5	347.6425	0.25683	0.02041	0.07642	25.51662	0.08025	0.83247	15.23475	0.61791	3695.14849
4285	6	28	13.5	320.37834	0.25004	0.01881	0.07124	24.24087	0.06891	0.77602	14.7545	0.59621	3399.79139
4286	6	28	14.5	268.52322	0.17912	0.01576	0.00335	7.63871	0.00091	0.03654	14.74187	0.27446	2774.87402
4303	6	29	7.5	140.77986	0.16826	0.00826	0.0	0.0	0.0	0.0	15.64063	0.14352	1155.69217
4304	6	29	8.5	244.6282	0.17986	0.01436	0.00551	9.19024	0.00142	0.05997	18.41124	0.30459	2937.69725
4305	6	29	9.5	348.13558	0.2662	0.02044	0.08577	27.11302	0.08181	0.93428	19.57416	0.644	3676.07225
4306	6	29	10.5	408.66558	0.26895	0.02399	0.08497	27.47646	0.08411	0.92555	18.75859	0.64976	4295.05769
4307	6	29	11.5	433.1147	0.26751	0.02542	0.08209	27.131	0.08386	0.89418	17.25609	0.64428	4566.32384
4308	6	29	12.5	401.64843	0.26489	0.02358	0.08131	26.76006	0.08249	0.88574	17.10068	0.63833	4359.01709
4309	6	29	13.5	410.96687	0.26537	0.02412	0.08125	26.80438	0.08228	0.88505	16.92296	0.63905	4314.26709
4310	6	29	14.5	387.5459	0.26476	0.02275	0.08201	26.75948	0.08178	0.89338	17.36931	0.63832	4072.62419
4311	6	29	15.5	328.80285	0.2629	0.0193	0.0836	26.52949	0.08001	0.91068	18.56909	0.6346	3298.59655
4312	6	29	16.5	238.9117	0.17517	0.01402	0.00114	3.43632	0.00029	0.01247	17.46193	0.198	2123.57104
4313	6	29	17.5	149.39639	0.16877	0.00877	0.0	0.0	0.0	0.0	15.76889	0.14352	1196.36465
4326	6	30	6.5	74.92227	0.1644	0.0044	0.0	0.0	0.0	0.0	13.66791	0.14352	609.36982
4327	6	30	7.5	147.89059	0.16868	0.00868	0.0	0.0	0.0	0.0	16.8052	0.14352	1235.9166
4328	6	30	8.5	222.20182	0.17482	0.01304	0.00178	4.77726	0.0004	0.01936	17.63898	0.22139	2464.46955
4329	6	30	9.5	288.05381	0.25006	0.01691	0.07315	24.12492	0.06447	0.79686	16.8595	0.5942	2664.58199
4330	6	30	10.5	363.10265	0.2622	0.02131	0.08089	26.4129	0.08242	0.88115	17.02639	0.6327	3632.50559
4331	6	30	11.5	421.84283	0.26603	0.02476	0.08127	26.90255	0.08303	0.88529	16.9617	0.64063	4612.52349
4332	6	30	12.5	449.39669	0.26852	0.02638	0.08214	27.24019	0.08387	0.89475	17.17261	0.64602	4766.24919
4333	6	30	13.5	448.95962	0.26916	0.02635	0.08281	27.34346	0.08371	0.90202	17.44417	0.64766	4833.37419
4334	6	30	14.5	413.24323	0.26918	0.02426	0.08492	27.45165	0.08281	0.92506	18.64925	0.64937	4324.81409
4335	6	30	15.5	352.99203	0.26662	0.02072	0.0859	27.13984	0.08093	0.9357	19.52741	0.64442	3805.84015
4336	6	30	16.5	272.75916	0.26071	0.01601	0.0847	26.09908	0.07633	0.92261	20.09292	0.62757	2698.68222
4337	6	30	17.5	182.69239	0.17072	0.01072	0.0	0.0	0.0	0.0	19.06479	0.14352	1568.0199
4338	6	30	18.5	100.66769	0.16591	0.00591	0.0	0.0	0.0	0.0	16.28563	0.14352	854.85006
4339	6	30	19.5	33.23245	0.16195	0.00195	0.0	0.0	0.0	0.0	11.18379	0.14352	256.7673
4350	7	1	6.5	74.13754	0.16435	0.00435	0.0	0.0	0.0	0.0	13.61195	0.14352	600.9792
4351	7	1	7.5	160.13837	0.1694	0.0094	0.0	0.0	0.0	0.0	17.83961	0.14352	1355.4574
4352	7	1	8.5	256.93642	0.23697	0.01508	0.06189	21.7294	0.0382	0.67413	19.62849	0.55142	3473.2476
4353	7	1	9.5	347.67031	0.26697	0.02041	0.08656	27.24236	0.08158	0.94289	20.04488	0.64606	3877.44725
4354	7	1	10.5	426.28593	0.27186	0.02502	0.08684	27.95396	0.08526	0.94593	19.61953	0.65724	4591.9976
4355	7	1	11.5	479.92459	0.27564	0.02817	0.08747	28.5054	0.0896	0.95279	19.52879	0.66575	5176.6469
4356	7	1	12.5	501.28177	0.27771	0.02943	0.08828	28.76184	0.08935	0.96168	19.86316	0.66965	5330.3726
4357	7	1	13.5	484.9525	0.276	0.02847	0.08753	28.51201	0.08858	0.95349	19.45818	0.66585	5309.44725
4358	7	1	14.5	435.79783	0.27343	0.02558	0.08785	28.20157	0.08597	0.95701	19.93544	0.66108	4726.2476
4359	7	1	15.5	366.25613	0.26846	0.0215	0.08696	27.43565	0.08132	0.94725	20.00003	0.64912	4011.69725
4360	7	1	16.5	277.6007	0.26166	0.0163	0.08536	26.27831	0.07692	0.9299	20.29737	0.63051	2845.29795
4361	7	1	17.5	183.47189	0.17077	0.01077	0.0	0.0	0.0	0.0	18.76551	0.14352	1568.0199
4362	7	1	18.5	93.88986	0.16551	0.00551	0.0	0.0	0.0	0.0	15.29612	0.14352	789.57041
4374	7	2	6.5	59.21753	0.16348	0.00348	0.0	0.0	0.0	0.0	12.00125	0.14352	469.52607
4375	7	2	7.5	129.28003	0.16759	0.00759	0.0	0.0	0.0	0.0	15.11747	0.14352	1029.31026
4376	7	2	8.5	208.17896	0.17222	0.01222	0.0	0.0	0.0	0.0	16.08981	0.14352	1869.291
4377	7	2	9.5	282.09815	0.2288	0.01656	0.05224	20.60584	0.03312	0.5691	16.70258	0.53057	2568.76342
4378	7	2	10.5	379.15423	0.26443	0.02226	0.08217	26.77	0.08316	0.89512	17.54745	0.63849	4026.42454
4379	7	2	11.5	453.08702	0.27061	0.0266	0.08401	27.64589	0.0864	0.91514	18.0106	0.65243	4629.09989
4380	7	2	12.5	489.47548	0.27435	0.02873	0.08562	28.20671	0.08911	0.93267	18.4599	0.66116	5102.00734
4381	7	2	13.5	473.80649	0.27397	0.02781	0.08615	28.1961	0.08843	0.9385	18.75293	0.661	5090.0462
4382	7	2	14.5	421.79244	0.27026	0.02476	0.0855	27.62232	0.08332	0.93142	18.89413	0.65206	4411.41479
4383	7	2	15.5	346.74244	0.26519	0.02035	0.08484	26.89418	0.08044	0.92419	19.02303	0.64049	3514.96515
4384	7	2	16.5	235.54005	0.17406	0.01383	0.00024	0.0	6e-05	0.0026	17.02654	0.14352	2101.92087
4424	7	4	8.5	177.01796	0.17039	0.01039	0.0	0.0	0.0	0.0	15.05934	0.14352	1556.69925
4425	7	4	9.5	283.38613	0.22771	0.01663	0.05108	20.441	0.03206	0.5564	16.55462	0.52748	2666.03164
4426	7	4	10.5	368.78911	0.26314	0.02165	0.0815	26.58139	0.08311	0.88776	17.29023	0.63544	3763.85629
4427	7	4	11.5	436.9847	0.26835	0.02565	0.08269	27.27724	0.0846	0.90081	17.52399	0.64661	4502.23129
4428	7	4	12.5	473.3524	0.27171	0.02779	0.08392	27.78897	0.08807	0.91418	17.72821	0.65467	4925.90664
4429	7	4	13.5	458.89804	0.27204	0.02694	0.0851	27.90776	0.08794	0.92702	18.31379	0.65653	4930.38874
4430	7	4	14.5	415.80578	0.26945	0.02441	0.08504	27.49562	0.08302	0.92637	18.70887	0.65007	4394.97155
4431	7	4	15.5	344.68401	0.26466	0.02023	0.08442	26.80783	0.08041	0.91965	18.86577	0.6391	3561.16479
4432	7	4	16.5	267.90235	0.25602	0.01573	0.08029	25.07739	0.06759	0.87462	19.67451	0.61052	2801.9976
4433	7	4	17.5	180.86597	0.17062	0.01062	0.0	0.0	0.0	0.0	18.20733	0.14352	1524.71955
4434	7	4	18.5	93.01561	0.16546	0.00546	0.0	0.0	0.0	0.0	15.01944	0.14352	776.53756
4446	7	5	6.5	72.40079	0.16425	0.00425	0.0	0.0	0.0	0.0	13.33426	0.14352	584.01674
4447	7	5	7.5	157.544	0.16925	0.00925	0.0	0.0	0.0	0.0	17.7067	0.14352	1326.53712
4448	7	5	8.5	254.4966	0.23356	0.01494	0.05862	21.18591	0.03414	0.63855	19.56613	0.54139	3449.42295
4449	7	5	9.5	345.81059	0.26667	0.0203	0.08637	27.19949	0.08171	0.94087	19.93545	0.64537	3831.2476
4450	7	5	10.5	425.11195	0.27163	0.02495	0.08667	27.91827	0.08527	0.94416	19.54459	0.65669	4548.69725
4451	7	5	11.5	479.9212	0.2755	0.02817	0.08733	28.48905	0.0898	0.95133	19.45065	0.6655	5199.0219
4452	7	5	12.5	501.27906	0.27777	0.02943	0.08835	28.7775	0.08945	0.96238	19.91487	0.66988	5360.129
4453	7	5	13.5	486.1085	0.276	0.02853	0.08747	28.50898	0.0886	0.9528	19.43921	0.6658	5130.44725
4454	7	5	14.5	439.60115	0.27431	0.0258	0.08851	28.35022	0.0863	0.96411	20.26989	0.66337	4821.67935
4455	7	5	15.5	363.37634	0.26877	0.02133	0.08744	27.50764	0.08158	0.95247	20.28023	0.65026	3926.67935
4456	7	5	16.5	276.20015	0.26172	0.01621	0.0855	26.29137	0.07701	0.93139	20.37032	0.63072	3024.29795
4457	7	5	17.5	180.74406	0.17061	0.01061	0.0	0.0	0.0	0.0	18.88449	0.14352	1545.6449
4458	7	5	18.5	93.94423	0.16551	0.00551	0.0	0.0	0.0	0.0	14.97592	0.14352	783.97666
4470	7	6	6.5	69.0182	0.16405	0.00405	0.0	0.0	0.0	0.0	13.38447	0.14352	558.48245
4471	7	6	7.5	155.35448	0.16912	0.00912	0.0	0.0	0.0	0.0	17.29634	0.14352	1303.0416
4472	7	6	8.5	241.32032	0.18019	0.01417	0.00603	9.48786	0.00142	0.06563	18.77798	0.31045	3004.82225
4473	7	6	9.5	322.05761	0.26242	0.0189	0.08351	26.5024	0.08131	0.90974	18.63482	0.63416	3365.72155
4474	7	6	10.5	375.68835	0.26417	0.02205	0.08212	26.74755	0.0835	0.8945	17.54448	0.63813	3828.08199
4475	7	6	11.5	385.46661	0.26215	0.02263	0.07952	26.33945	0.082	0.86626	16.34057	0.63151	3932.44244
4476	7	6	12.5	341.22305	0.25583	0.02003	0.0758	25.35406	0.07972	0.82569	15.09013	0.61518	3750.40999
4477	7	6	13.5	328.31147	0.25216	0.01927	0.07288	24.64956	0.07332	0.79393	14.72252	0.60324	3572.85964
4478	7	6	14.5	289.20961	0.22982	0.01698	0.05284	20.7406	0.03391	0.57562	14.94586	0.5331	2992.69244
4494	7	7	6.5	69.46494	0.16408	0.00408	0.0	0.0	0.0	0.0	13.25703	0.14352	559.40513
4495	7	7	7.5	155.53587	0.16913	0.00913	0.0	0.0	0.0	0.0	17.43594	0.14352	1308.27293
4496	7	7	8.5	250.16652	0.22649	0.01468	0.05181	20.0824	0.02662	0.56434	19.57513	0.52071	3361.3726
4497	7	7	9.5	342.2082	0.26636	0.02009	0.08627	27.15739	0.08182	0.93975	19.90698	0.6447	3741.7476
4498	7	7	10.5	420.04845	0.2716	0.02466	0.08694	27.93577	0.0853	0.94709	19.75266	0.65696	4435.3726
4499	7	7	11.5	478.00192	0.27483	0.02806	0.08677	28.37543	0.08973	0.94522	19.14635	0.66376	5131.8969
4500	7	7	12.5	500.963	0.27729	0.02941	0.08788	28.69571	0.08962	0.95728	19.61951	0.66864	5336.30435
4501	7	7	13.5	485.34937	0.27558	0.02849	0.08709	28.44382	0.08881	0.94874	19.21124	0.6648	5218.4976
4502	7	7	14.5	440.79607	0.27399	0.02587	0.08812	28.28792	0.08634	0.95987	20.03763	0.66241	4776.92935
4503	7	7	15.5	362.44954	0.26833	0.02128	0.08705	27.42812	0.08143	0.94827	20.06751	0.649	3950.504
4504	7	7	16.5	275.66231	0.26148	0.01618	0.0853	26.24656	0.07685	0.92917	20.29414	0.62999	2942.17935
4505	7	7	17.5	180.40626	0.17059	0.01059	0.0	0.0	0.0	0.0	18.82193	0.14352	1538.1481
4506	7	7	18.5	93.9142	0.16551	0.00551	0.0	0.0	0.0	0.0	15.01615	0.14352	783.97666
4518	7	8	6.5	68.83245	0.16404	0.00404	0.0	0.0	0.0	0.0	13.17468	0.14352	553.06991
4519	7	8	7.5	155.36487	0.16912	0.00912	0.0	0.0	0.0	0.0	17.37631	0.14352	1298.93079
4520	7	8	8.5	250.55763	0.22679	0.01471	0.05208	20.12987	0.02692	0.56735	19.57007	0.52161	3516.54795
4521	7	8	9.5	339.54904	0.26649	0.01993	0.08656	27.18774	0.08183	0.94288	20.08592	0.64519	3764.1226
4522	7	8	10.5	420.35134	0.27165	0.02467	0.08697	27.94383	0.0853	0.94743	19.78978	0.65709	4459.19725
4523	7	8	11.5	483.00673	0.27554	0.02835	0.08718	28.47746	0.08982	0.94972	19.31974	0.66532	5108.07225
4524	7	8	12.5	502.61218	0.27671	0.0295	0.08721	28.58643	0.08979	0.94998	19.20345	0.66698	5287.07225
4525	7	8	13.5	486.56914	0.27642	0.02856	0.08786	28.58541	0.08891	0.95706	19.62248	0.66697	5136.379
4526	7	8	14.5	433.28923	0.27328	0.02543	0.08785	28.19935	0.08635	0.95696	19.96496	0.66105	4724.79795
4527	7	8	15.5	362.02485	0.26833	0.02125	0.08708	27.43087	0.08145	0.94859	20.10326	0.64904	3875.9976
4528	7	8	16.5	275.43174	0.26129	0.01617	0.08513	26.21512	0.07685	0.92729	20.20063	0.62947	2764.35757
4529	7	8	17.5	179.97505	0.17056	0.01056	0.0	0.0	0.0	0.0	18.77977	0.14352	1534.4574
4530	7	8	18.5	93.63236	0.1655	0.0055	0.0	0.0	0.0	0.0	14.95715	0.14352	778.38291
4542	7	9	6.5	68.58987	0.16403	0.00403	0.0	0.0	0.0	0.0	13.12877	0.14352	551.0145
4543	7	9	7.5	154.93459	0.16909	0.00909	0.0	0.0	0.0	0.0	17.42028	0.14352	1298.56837
4544	7	9	8.5	249.52544	0.22486	0.01465	0.05021	19.83111	0.02512	0.54696	19.57182	0.51594	3338.9976
4545	7	9	9.5	339.38229	0.26652	0.01992	0.0866	27.19755	0.08192	0.94335	20.10864	0.64534	3810.32225
4546	7	9	10.5	419.18973	0.27148	0.02461	0.08688	27.92138	0.08535	0.94638	19.73919	0.65674	4396.55435
4547	7	9	11.5	483.87272	0.27548	0.0284	0.08708	28.47	0.09004	0.94857	19.26111	0.6652	5039.4976
4548	7	9	12.5	503.11359	0.27664	0.02953	0.0871	28.57041	0.08981	0.94883	19.15079	0.66674	5309.44725
4549	7	9	13.5	481.80143	0.27555	0.02828	0.08727	28.45914	0.08887	0.95067	19.34945	0.66504	5225.879
4550	7	9	14.5	433.41565	0.27312	0.02544	0.08768	28.16776	0.0863	0.95513	19.87185	0.66056	4709.80435
4551	7	9	15.5	361.21689	0.26808	0.0212	0.08687	27.38592	0.08136	0.94634	19.9897	0.64833	4032.6226
4552	7	9	16.5	274.80339	0.261	0.01613	0.08487	26.16059	0.0767	0.9245	20.10265	0.62858	2869.1226
4553	7	9	17.5	179.84204	0.17056	0.01056	0.0	0.0	0.0	0.0	18.65056	0.14352	1534.4574
4554	7	9	18.5	93.15324	0.16547	0.00547	0.0	0.0	0.0	0.0	14.87431	0.14352	772.78916
4567	7	10	7.5	113.06729	0.16664	0.00664	0.0	0.0	0.0	0.0	14.03296	0.14352	888.74168
4568	7	10	8.5	216.04851	0.17333	0.01268	0.00065	1.11506	0.00014	0.00703	16.5312	0.16025	2392.86245
4569	7	10	9.5	318.65411	0.26205	0.0187	0.08335	26.44515	0.08128	0.90791	18.59753	0.63323	3207.6469
4570	7	10	10.5	409.26825	0.26875	0.02402	0.08472	27.4496	0.08442	0.9229	18.65372	0.64934	4259.2719
4571	7	10	11.5	468.27947	0.27396	0.02749	0.08647	28.26753	0.08972	0.94192	19.04985	0.6621	4863.3969
4572	7	10	12.5	484.69543	0.27739	0.02845	0.08894	28.82217	0.09003	0.96885	20.39898	0.67056	5418.42295
4573	7	10	13.5	475.52797	0.27654	0.02791	0.08863	28.67405	0.08892	0.96545	20.20319	0.66832	5202.05435
4574	7	10	14.5	426.03669	0.27413	0.02501	0.08912	28.3915	0.08654	0.97081	20.79203	0.664	4685.9797
4575	7	10	15.5	356.05092	0.26885	0.0209	0.08795	27.54158	0.08148	0.95808	20.70081	0.65079	3904.30435
4576	7	10	16.5	268.43454	0.26152	0.01576	0.08577	26.24278	0.07646	0.93429	20.74053	0.62992	2912.42295
4577	7	10	17.5	175.54339	0.1703	0.0103	0.0	0.0	0.0	0.0	18.69478	0.14352	1492.67327
4578	7	10	18.5	90.725	0.16533	0.00533	0.0	0.0	0.0	0.0	14.73087	0.14352	750.41416
4591	7	11	7.5	127.61763	0.16749	0.00749	0.0	0.0	0.0	0.0	14.89223	0.14352	1071.0611
4592	7	11	8.5	230.35914	0.17677	0.01352	0.00325	7.05548	0.00072	0.03537	17.82368	0.26335	2827.2719
4593	7	11	9.5	333.38839	0.26428	0.01957	0.08471	26.812	0.08166	0.92281	19.14828	0.63917	3474.69725
4594	7	11	10.5	410.06667	0.27045	0.02407	0.08638	27.76386	0.08496	0.94094	19.55311	0.65428	4278.7476
4595	7	11	11.5	468.4219	0.27529	0.0275	0.08779	28.51425	0.08989	0.95635	19.80928	0.66588	4993.29795
4596	7	11	12.5	484.79515	0.27725	0.02846	0.08879	28.7932	0.08996	0.96721	20.30308	0.67012	5290.1047
4597	7	11	13.5	478.38305	0.27427	0.02808	0.08619	28.24843	0.08895	0.9389	18.74863	0.6618	5172.16479
4598	7	11	14.5	427.83296	0.27038	0.02511	0.08527	27.64142	0.08403	0.92885	18.73138	0.65236	4523.28979
4599	7	11	15.5	345.07387	0.2641	0.02026	0.08385	26.72011	0.08059	0.91338	18.58486	0.63769	3556.68269
4600	7	11	16.5	254.96342	0.21826	0.01497	0.0433	18.86313	0.02111	0.47166	17.90217	0.49738	2338.3746
4601	7	11	17.5	158.3713	0.1693	0.0093	0.0	0.0	0.0	0.0	16.08566	0.14352	1291.09598
4602	7	11	18.5	76.98905	0.16452	0.00452	0.0	0.0	0.0	0.0	13.30626	0.14352	609.17197
4615	7	12	7.5	118.43365	0.16695	0.00695	0.0	0.0	0.0	0.0	14.30583	0.14352	928.26035
4616	7	12	8.5	210.30125	0.17357	0.01234	0.00123	3.29681	0.00028	0.01337	16.19254	0.19563	2260.0621
4617	7	12	9.5	301.5736	0.25791	0.0177	0.08021	25.70978	0.07899	0.87377	17.55151	0.62113	2977.83199
4618	7	12	10.5	397.24259	0.2667	0.02332	0.08339	27.13038	0.08401	0.90835	18.0937	0.64427	4051.83199
4619	7	12	11.5	470.73775	0.27264	0.02763	0.08501	28.0081	0.08942	0.92603	18.26733	0.65809	4951.31409
4620	7	12	12.5	499.62957	0.27511	0.02933	0.08579	28.33034	0.09016	0.9345	18.44813	0.66306	5175.19725
4621	7	12	13.5	487.61852	0.27624	0.02862	0.08762	28.5627	0.08934	0.95448	19.48946	0.66662	5240.8726
4622	7	12	14.5	433.4831	0.27285	0.02545	0.08741	28.1274	0.08655	0.95214	19.7203	0.65993	4770.9976
4623	7	12	15.5	361.77617	0.26806	0.02124	0.08682	27.38775	0.08155	0.9458	19.95835	0.64836	3993.80435
4624	7	12	16.5	273.41062	0.26058	0.01605	0.08453	26.0852	0.07654	0.92079	19.97324	0.62734	2732.24472
4625	7	12	17.5	177.80645	0.17044	0.01044	0.0	0.0	0.0	0.0	18.42941	0.14352	1504.5856
4626	7	12	18.5	91.18807	0.16535	0.00535	0.0	0.0	0.0	0.0	14.60466	0.14352	754.52497
4638	7	13	6.5	65.60306	0.16385	0.00385	0.0	0.0	0.0	0.0	12.78221	0.14352	520.24888
4639	7	13	7.5	151.11821	0.16887	0.00887	0.0	0.0	0.0	0.0	17.02046	0.14352	1254.18079
4640	7	13	8.5	244.7793	0.20542	0.01437	0.03105	16.68863	0.01115	0.33828	19.50578	0.45478	3404.67295
4641	7	13	9.5	339.34224	0.26546	0.01992	0.08554	27.01417	0.08196	0.93182	19.55267	0.64242	3749.129
4642	7	13	10.5	417.83461	0.27066	0.02453	0.08613	27.78028	0.08529	0.93822	19.35149	0.65454	4345.8726
4643	7	13	11.5	479.40955	0.27523	0.02814	0.08709	28.45017	0.09012	0.94873	19.33434	0.6649	5108.07225
4644	7	13	12.5	503.79403	0.2764	0.02957	0.08683	28.54091	0.09028	0.94584	18.98557	0.66629	5376.57225
4645	7	13	13.5	487.92454	0.27607	0.02864	0.08743	28.5315	0.08938	0.9524	19.38295	0.66614	5130.44725
4646	7	13	14.5	433.40364	0.2729	0.02544	0.08746	28.14313	0.08675	0.95273	19.74186	0.66018	4659.1226
4647	7	13	15.5	361.52719	0.26779	0.02122	0.08657	27.33806	0.08142	0.94305	19.84484	0.64757	3920.7476
4648	7	13	16.5	260.35789	0.23289	0.01528	0.05761	21.13555	0.03479	0.62752	18.56507	0.54046	2574.1035
4649	7	13	17.5	147.74416	0.16867	0.00867	0.0	0.0	0.0	0.0	15.53499	0.14352	1173.98965
4662	7	14	6.5	64.23087	0.16377	0.00377	0.0	0.0	0.0	0.0	12.48454	0.14352	506.2645
4663	7	14	7.5	139.23022	0.16817	0.00817	0.0	0.0	0.0	0.0	16.00678	0.14352	1140.46043
4664	7	14	8.5	215.87713	0.17436	0.01267	0.00169	4.51482	0.00036	0.01843	17.05883	0.21673	2516.64977
4665	7	14	9.5	277.23405	0.21132	0.01627	0.03505	17.81019	0.01744	0.38182	16.05492	0.4769	2643.65664
4666	7	14	10.5	341.4005	0.25821	0.02004	0.07817	25.77764	0.08158	0.85151	16.00867	0.62226	3672.77349
4667	7	14	11.5	386.24194	0.26088	0.02267	0.0782	26.12991	0.08187	0.85188	15.70945	0.62807	4176.98464
4668	7	14	12.5	400.90624	0.26276	0.02353	0.07922	26.40598	0.08221	0.86301	16.15003	0.63259	4449.96674
4669	7	14	13.5	434.25457	0.26681	0.02549	0.08132	26.99746	0.0833	0.88588	16.88291	0.64215	4812.44884
4670	7	14	14.5	414.94787	0.26785	0.02436	0.0835	27.22572	0.08289	0.90954	17.97013	0.64579	4411.28164
4671	7	14	15.5	359.18827	0.2667	0.02108	0.08562	27.15416	0.08141	0.93268	19.32907	0.64465	3744.6469
4672	7	14	16.5	249.22334	0.18377	0.01463	0.00914	11.20265	0.00274	0.09953	17.86083	0.34458	2261.57832
4673	7	14	17.5	142.30129	0.16835	0.00835	0.0	0.0	0.0	0.0	15.10692	0.14352	1123.6459
4686	7	15	6.5	64.2267	0.16377	0.00377	0.0	0.0	0.0	0.0	12.57437	0.14352	506.0833
4687	7	15	7.5	140.93685	0.16827	0.00827	0.0	0.0	0.0	0.0	16.34531	0.14352	1162.83543
4688	7	15	8.5	225.41682	0.17603	0.01323	0.0028	6.45232	0.00061	0.0305	17.35607	0.252	2629.31617
4689	7	15	9.5	276.86985	0.20925	0.01625	0.033	17.4551	0.01599	0.35949	16.02005	0.46992	2688.40664
4690	7	15	10.5	383.07647	0.26444	0.02249	0.08196	26.78835	0.0839	0.89277	17.47755	0.63879	3962.33199
4691	7	15	11.5	465.79353	0.27176	0.02734	0.08442	27.88029	0.0896	0.91959	17.99896	0.6561	4896.15024
4692	7	15	12.5	500.65787	0.27498	0.02939	0.08559	28.3065	0.09032	0.93236	18.33697	0.6627	5267.59655
4693	7	15	13.5	493.16087	0.27586	0.02895	0.08691	28.47653	0.08963	0.94677	19.04379	0.6653	5258.7655
4694	7	15	14.5	439.25946	0.27367	0.02578	0.08788	28.26195	0.08713	0.95734	19.91876	0.66201	4733.629
4695	7	15	15.5	362.5579	0.26777	0.02128	0.08649	27.33556	0.08156	0.94218	19.78735	0.64754	4040.004
4696	7	15	16.5	274.16031	0.26003	0.01609	0.08394	25.98015	0.07611	0.91435	19.72926	0.62561	2936.2476
4697	7	15	17.5	176.69319	0.17037	0.01037	0.0	0.0	0.0	0.0	18.33586	0.14352	1493.3981
4698	7	15	18.5	89.65134	0.16526	0.00526	0.0	0.0	0.0	0.0	14.45937	0.14352	737.74372
4710	7	16	6.5	63.38614	0.16372	0.00372	0.0	0.0	0.0	0.0	12.51954	0.14352	500.48955
4711	7	16	7.5	147.9677	0.16869	0.00869	0.0	0.0	0.0	0.0	16.79231	0.14352	1224.36668
4712	7	16	8.5	240.89265	0.18304	0.01414	0.0089	10.98696	0.00193	0.09697	19.20149	0.34026	3338.9976
4713	7	16	9.5	332.25136	0.26421	0.0195	0.0847	26.81371	0.082	0.92268	19.16519	0.6392	3517.9976
4714	7	16	10.5	397.84876	0.26698	0.02335	0.08362	27.1816	0.08423	0.91091	18.20607	0.64509	4053.41479
4715	7	16	11.5	425.76832	0.26604	0.02499	0.08105	26.92322	0.08413	0.88292	16.85935	0.64096	4412.73129
4716	7	16	12.5	402.69173	0.26243	0.02364	0.07879	26.34773	0.08216	0.85831	15.93319	0.63164	4566.19069
4717	7	16	13.5	386.07057	0.26098	0.02266	0.07832	26.14502	0.0818	0.85313	15.70946	0.62832	3827.94884
4718	7	16	14.5	336.14819	0.259	0.01973	0.07927	25.8892	0.08065	0.86346	16.49595	0.6241	3669.87419
4719	7	16	15.5	279.61997	0.21146	0.01641	0.03505	17.83814	0.01763	0.3818	15.64655	0.47744	3020.99919
4720	7	16	16.5	206.34957	0.17211	0.01211	0.0	0.0	0.0	0.0	15.29301	0.14352	1732.73337
4721	7	16	17.5	129.03191	0.16757	0.00757	0.0	0.0	0.0	0.0	14.40898	0.14352	996.11017
4734	7	17	6.5	58.06956	0.16341	0.00341	0.0	0.0	0.0	0.0	12.70911	0.14352	455.55834
4735	7	17	7.5	133.74928	0.16785	0.00785	0.0	0.0	0.0	0.0	15.29547	0.14352	1079.2916
4736	7	17	8.5	209.15448	0.17398	0.01228	0.0017	4.4458	0.00035	0.01857	16.62623	0.21551	2369.76262
4737	7	17	9.5	274.48747	0.20399	0.01611	0.02787	16.49545	0.01244	0.30363	16.02824	0.45094	2561.99144
4738	7	17	10.5	289.76253	0.21119	0.01701	0.03418	17.80986	0.01798	0.37229	15.06512	0.47689	2952.42454
4744	7	17	16.5	205.18221	0.17204	0.01204	0.0	0.0	0.0	0.0	15.36659	0.14352	1811.04587
4745	7	17	17.5	165.28353	0.1697	0.0097	0.0	0.0	0.0	0.0	16.74501	0.14352	1368.09455
4746	7	17	18.5	87.2724	0.16512	0.00512	0.0	0.0	0.0	0.0	14.64891	0.14352	721.72059
4758	7	18	6.5	61.54492	0.16361	0.00361	0.0	0.0	0.0	0.0	12.31008	0.14352	499.55023
4759	7	18	7.5	146.5516	0.1686	0.0086	0.0	0.0	0.0	0.0	16.62912	0.14352	1203.47462
4760	7	18	8.5	239.35485	0.18204	0.01405	0.00799	10.54651	0.00173	0.08709	19.03672	0.33146	3379.2655
4761	7	18	9.5	331.10158	0.26388	0.01944	0.08444	26.76284	0.08209	0.91983	19.03202	0.63838	3632.7719
4762	7	18	10.5	414.33014	0.26879	0.02432	0.08447	27.45806	0.08496	0.92012	18.52308	0.64947	4208.59015
4763	7	18	11.5	469.98602	0.27232	0.02759	0.08473	28.00062	0.09078	0.923	18.07399	0.65797	4908.1469
4764	7	18	12.5	492.48723	0.27375	0.02891	0.08484	28.1358	0.09048	0.92419	17.99095	0.66006	5149.78979
4765	7	18	13.5	461.49611	0.27036	0.02709	0.08327	27.61276	0.08818	0.90704	17.43204	0.65191	4791.65664
4766	7	18	14.5	391.48772	0.26447	0.02298	0.08149	26.71099	0.08203	0.88771	17.17193	0.63754	3986.15664
4767	7	18	15.5	298.97056	0.25225	0.01755	0.0747	24.58442	0.06975	0.81376	16.29392	0.60212	3070.23129
4768	7	18	16.5	215.62692	0.17305	0.01266	0.00039	0.0	8e-05	0.00426	15.70198	0.14352	2101.12947
4769	7	18	17.5	132.17001	0.16776	0.00776	0.0	0.0	0.0	0.0	14.56114	0.14352	1022.59598
4782	7	19	6.5	48.91696	0.16287	0.00287	0.0	0.0	0.0	0.0	11.5621	0.14352	397.00517
4786	7	19	10.5	223.79189	0.17436	0.01314	0.00122	3.47234	0.00025	0.01333	13.68769	0.19861	2388.97202
4787	7	19	11.5	328.74729	0.25362	0.0193	0.07432	24.98956	0.07825	0.80959	14.90916	0.60903	3644.46674
4788	7	19	12.5	403.06985	0.26193	0.02366	0.07827	26.2632	0.08206	0.8526	15.6941	0.63026	4051.69884
4789	7	19	13.5	445.7195	0.26753	0.02616	0.08137	27.08791	0.08376	0.88635	16.85781	0.64359	4879.57384
4790	7	19	14.5	427.92326	0.26932	0.02512	0.0842	27.45052	0.08372	0.91723	18.25752	0.64935	4485.9212
4791	7	19	15.5	360.56846	0.26699	0.02117	0.08582	27.20773	0.08161	0.93491	19.42928	0.6455	3898.3726
4792	7	19	16.5	271.34386	0.25961	0.01593	0.08369	25.90191	0.07582	0.91162	19.68321	0.62431	2875.05435
4793	7	19	17.5	175.24561	0.17029	0.01029	0.0	0.0	0.0	0.0	18.18685	0.14352	1478.5199
4794	7	19	18.5	88.46047	0.16519	0.00519	0.0	0.0	0.0	0.0	14.36863	0.14352	722.44541
4806	7	20	6.5	60.44945	0.16355	0.00355	0.0	0.0	0.0	0.0	12.16284	0.14352	491.34081
4807	7	20	7.5	144.46661	0.16848	0.00848	0.0	0.0	0.0	0.0	16.55373	0.14352	1185.21043
4808	7	20	8.5	237.50814	0.18201	0.01394	0.00807	10.55868	0.00168	0.08791	18.96052	0.3317	3385.19725
4809	7	20	9.5	329.71539	0.26352	0.01935	0.08417	26.70183	0.082	0.91683	18.92814	0.63739	3676.07225
4810	7	20	10.5	398.00777	0.2665	0.02336	0.08313	27.10598	0.0844	0.9056	17.97034	0.64388	3941.53979
4811	7	20	11.5	426.01967	0.26562	0.02501	0.08061	26.85572	0.08429	0.8781	16.67588	0.63987	4567.77349
4812	7	20	12.5	404.09629	0.26193	0.02372	0.07821	26.26128	0.08209	0.85192	15.69098	0.63023	4367.84814
4813	7	20	13.5	445.18692	0.26731	0.02613	0.08118	27.04993	0.08362	0.8843	16.77733	0.64299	4737.94244
4814	7	20	14.5	427.94334	0.26916	0.02512	0.08404	27.42787	0.08391	0.91546	18.15219	0.649	4518.80769
4815	7	20	15.5	360.72477	0.26695	0.02117	0.08577	27.20518	0.08176	0.93437	19.40114	0.64546	3943.1226
4816	7	20	16.5	259.49488	0.23285	0.01523	0.05762	21.12737	0.0348	0.62762	18.57955	0.54031	2678.4817
4817	7	20	17.5	156.08503	0.16916	0.00916	0.0	0.0	0.0	0.0	15.64885	0.14352	1257.53348
4830	7	21	6.5	57.08976	0.16335	0.00335	0.0	0.0	0.0	0.0	12.79896	0.14352	448.09039
4831	7	21	7.5	143.75431	0.16844	0.00844	0.0	0.0	0.0	0.0	16.50507	0.14352	1179.25427
4832	7	21	8.5	238.08935	0.18269	0.01398	0.00871	10.86411	0.0018	0.09487	19.08945	0.3378	3540.3726
4833	7	21	9.5	335.56195	0.26427	0.0197	0.08458	26.82915	0.08228	0.9213	19.11436	0.63945	3855.07225
4834	7	21	10.5	416.94261	0.26917	0.02447	0.08469	27.53454	0.08556	0.92258	18.62692	0.65068	4369.69725
4835	7	21	11.5	473.09693	0.27278	0.02777	0.085	28.08254	0.09124	0.92597	18.21189	0.65924	4841.0219
4836	7	21	12.5	492.57401	0.27327	0.02891	0.08436	28.05794	0.09062	0.91895	17.75357	0.65886	5045.2962
4837	7	21	13.5	479.39714	0.27282	0.02814	0.08468	28.01877	0.08995	0.92239	17.93103	0.65825	5018.57225
4838	7	21	14.5	429.80685	0.27025	0.02523	0.08502	27.69856	0.08701	0.92617	18.41246	0.65326	4527.7719
4839	7	21	15.5	357.82092	0.2657	0.021	0.08469	26.98462	0.08136	0.92258	18.87936	0.64194	3832.69725
4840	7	21	16.5	259.09039	0.23149	0.01521	0.05628	20.91716	0.03337	0.61312	18.48317	0.5364	2660.63762
4841	7	21	17.5	162.5714	0.16954	0.00954	0.0	0.0	0.0	0.0	16.55764	0.14352	1334.53205
4842	7	21	18.5	77.99016	0.16458	0.00458	0.0	0.0	0.0	0.0	13.75937	0.14352	620.17827
4854	7	22	6.5	58.58488	0.16344	0.00344	0.0	0.0	0.0	0.0	12.01055	0.14352	491.1596
4855	7	22	7.5	136.14748	0.16799	0.00799	0.0	0.0	0.0	0.0	16.15638	0.14352	1113.61221
4856	7	22	8.5	236.51139	0.18224	0.01388	0.00836	10.68143	0.00165	0.09104	18.8722	0.33415	3452.32225
4857	7	22	9.5	329.51396	0.26336	0.01934	0.08402	26.68092	0.08218	0.91522	18.85236	0.63705	3676.07225
4858	7	22	10.5	405.04184	0.26718	0.02378	0.08341	27.2107	0.08477	0.90856	18.07514	0.64555	4187.66479
4859	7	22	11.5	445.82699	0.2676	0.02617	0.08143	27.15556	0.08579	0.88708	16.92709	0.64467	4682.68094
4860	7	22	12.5	446.53487	0.2665	0.02621	0.08029	26.92022	0.08387	0.8746	16.44688	0.64091	4639.38059
4861	7	22	13.5	394.98019	0.2614	0.02319	0.07822	26.19542	0.08193	0.85202	15.66986	0.62915	4135.26709
4862	7	22	14.5	302.64608	0.24159	0.01777	0.06383	22.71228	0.05314	0.69528	14.96531	0.56926	3358.07384
4880	7	23	8.5	166.28492	0.16976	0.00976	0.0	0.0	0.0	0.0	14.36993	0.14352	1400.14082
4881	7	23	9.5	235.14897	0.17459	0.0138	0.00079	2.07041	0.00017	0.00858	14.86516	0.17533	2358.37539
4882	7	23	10.5	341.92909	0.25777	0.02007	0.0777	25.71899	0.08197	0.84636	15.85046	0.62128	3648.94884
4883	7	23	11.5	427.04796	0.26516	0.02507	0.08009	26.7738	0.08413	0.87241	16.45515	0.63855	4518.67454
4884	7	23	12.5	475.98744	0.27056	0.02794	0.08262	27.64154	0.09026	0.9	17.05723	0.65236	5122.79954
4885	7	23	13.5	470.65172	0.2716	0.02763	0.08397	27.84	0.08986	0.91476	17.64607	0.65547	4884.18909
4886	7	23	14.5	429.63308	0.26976	0.02522	0.08454	27.60358	0.08665	0.92096	18.23134	0.65177	4527.7719
4887	7	23	15.5	358.20327	0.26561	0.02103	0.08458	26.97502	0.08155	0.92137	18.8229	0.64179	3855.07225
4888	7	23	16.5	253.89532	0.21306	0.0149	0.03816	18.02997	0.01725	0.41569	17.77115	0.4812	2449.52477
4889	7	23	17.5	146.36472	0.16859	0.00859	0.0	0.0	0.0	0.0	15.62372	0.14352	1168.03348
4975	7	27	7.5	95.65556	0.16561	0.00561	0.0	0.0	0.0	0.0	12.96591	0.14352	842.87116
4976	7	27	8.5	190.79282	0.17174	0.0112	0.00054	0.0928	0.00011	0.00585	15.43586	0.14487	2081.78692
4977	7	27	9.5	296.34808	0.25377	0.0174	0.07637	24.93345	0.07441	0.83194	16.70218	0.60808	2936.11444
4978	7	27	10.5	343.05702	0.25724	0.02014	0.07711	25.64047	0.0822	0.83993	15.58583	0.61997	3647.49919
4979	7	27	11.5	330.61326	0.25239	0.01941	0.07298	24.77653	0.07726	0.79498	14.4893	0.60541	3599.71674
