ann_hour	month	day	hour	illum	dgp	dgp_t1	dgp_t2	ugr	srcarea	log_gc	gcr	ugp	maxlum
9	1	1	9.5	95.59336	0.16561	0.00561	0.0	0.0	0.0	0.0	3.58182	0.14352	394.76856
10	1	1	10.5	366.12357	0.40975	0.02149	0.22826	37.9031	0.0002	2.48647	5060.5331	0.78752	2869728.0
11	1	1	11.5	249.15895	0.31617	0.01463	0.14154	28.43516	0.00019	1.54185	1793.55529	0.66467	1326032.0
34	1	2	10.5	194.82149	0.34518	0.01144	0.17375	30.68508	0.0002	1.89266	1271.21521	0.69787	810512.0
35	1	2	11.5	312.07838	0.34675	0.01832	0.16843	31.66208	0.00025	1.83478	3366.41149	0.7115	2388576.0
36	1	2	12.5	310.75236	0.34707	0.01824	0.16882	31.27754	0.00021	1.83905	5549.035	0.70619	3585728.0
37	1	2	13.5	353.46408	0.18075	0.02075	0.0	0.0	0.0	0.0	3.93024	0.14352	1737.34862
38	1	2	14.5	300.79816	0.17766	0.01766	0.0	0.0	0.0	0.0	4.62284	0.14352	1948.3949
39	1	2	15.5	221.27016	0.17299	0.01299	0.0	0.0	0.0	0.0	5.34255	0.14352	1660.48577
106	1	5	10.5	375.39436	0.41201	0.02204	0.22998	38.16881	0.00021	2.50518	5212.1519	0.79035	2944192.0
107	1	5	11.5	379.04209	0.37202	0.02225	0.18977	34.29631	0.00019	2.06724	5494.10749	0.74588	3562816.0
108	1	5	12.5	315.25483	0.34421	0.01851	0.16571	31.05546	0.00018	1.80511	5215.13318	0.70309	3516992.0
109	1	5	13.5	351.77439	0.18065	0.02065	0.0	0.0	0.0	0.0	3.9805	0.14352	1648.57345
110	1	5	14.5	332.43747	0.18504	0.01951	0.00553	10.26081	0.01304	0.06021	4.67991	0.32577	2184.05722
111	1	5	15.5	240.91686	0.17414	0.01414	0.0	0.0	0.0	0.0	5.47785	0.14352	1869.35757
181	1	8	13.5	191.45228	0.17124	0.01124	0.0	0.0	0.0	0.0	3.95283	0.14352	961.06473
182	1	8	14.5	255.91279	0.17502	0.01502	0.0	0.0	0.0	0.0	4.37558	0.14352	1558.28205
183	1	8	15.5	208.43817	0.17224	0.01224	0.0	0.0	0.0	0.0	5.34132	0.14352	1603.82345
201	1	9	9.5	96.3812	0.16566	0.00566	0.0	0.0	0.0	0.0	3.66424	0.14352	405.21459
202	1	9	10.5	308.60505	0.39488	0.01812	0.21676	36.24802	0.00022	2.36123	3691.69862	0.76918	2044896.0
203	1	9	11.5	259.00612	0.32058	0.0152	0.14538	28.92953	0.00021	1.58361	1910.23833	0.67218	1400496.0
225	1	10	9.5	100.2239	0.16588	0.00588	0.0	0.0	0.0	0.0	3.6759	0.14352	422.17705
226	1	10	10.5	403.72109	0.41529	0.0237	0.23159	38.56686	0.00024	2.52275	5355.24216	0.79452	3287872.0
227	1	10	11.5	534.55042	0.41211	0.03138	0.22074	38.45763	0.0115	2.40454	11051.25039	0.79338	6885442.65643
228	1	10	12.5	420.81061	0.39539	0.0247	0.21069	36.08616	0.01147	2.29509	12325.46024	0.76731	8042112.0
229	1	10	13.5	419.49743	0.1878	0.02462	0.00318	8.89427	0.01824	0.03463	4.04	0.29878	2367.6059
230	1	10	14.5	401.13853	0.19472	0.02355	0.01117	13.68622	0.02241	0.12166	4.99244	0.3946	3074.9797
231	1	10	15.5	253.94994	0.17698	0.01491	0.00208	5.7775	0.00349	0.02263	5.68278	0.2395	2048.35757
249	1	11	9.5	80.07271	0.1647	0.0047	0.0	0.0	0.0	0.0	2.93933	0.14352	281.00208
250	1	11	10.5	253.25206	0.3808	0.01487	0.20593	34.59769	0.00019	2.24325	2816.57353	0.7496	1483552.0
251	1	11	11.5	407.40781	0.3776	0.02391	0.19369	34.90972	0.00021	2.10987	5971.46029	0.7534	3975232.0
252	1	11	12.5	405.38757	0.37976	0.0238	0.19597	34.61813	0.00826	2.1347	9427.67553	0.74985	6575744.0
253	1	11	13.5	415.14805	0.18706	0.02437	0.00269	8.23977	0.01574	0.02929	4.01727	0.28604	2319.89002
254	1	11	14.5	398.86036	0.19456	0.02341	0.01115	13.67229	0.02376	0.12147	4.97083	0.39432	2985.4797
255	1	11	15.5	257.18265	0.18055	0.0151	0.00546	9.40833	0.00876	0.05945	5.77134	0.30888	2093.8324
417	1	18	9.5	110.59364	0.16649	0.00649	0.0	0.0	0.0	0.0	3.81322	0.14352	477.55429
418	1	18	10.5	364.85384	0.39128	0.02142	0.20987	35.8692	0.00017	2.28614	3146.46547	0.7648	3127488.0
419	1	18	11.5	527.06827	0.406	0.03094	0.21506	37.88885	0.00673	2.34274	9932.06094	0.78737	6621568.0
420	1	18	12.5	423.01933	0.39036	0.02483	0.20553	35.61918	0.00021	2.23889	11308.18746	0.76187	7767168.0
421	1	18	13.5	400.41629	0.1837	0.0235	0.0002	0.0	0.00093	0.00212	3.85281	0.14352	2119.23985
422	1	18	14.5	338.35163	0.18744	0.01986	0.00758	11.56507	0.01726	0.08254	4.74398	0.35185	2296.65705
423	1	18	15.5	211.6644	0.17242	0.01242	0.0	0.0	0.0	0.0	5.37307	0.14352	1691.80722
585	1	25	9.5	156.39326	0.16918	0.00918	0.0	0.0	0.0	0.0	2.7907	0.14352	520.44673
586	1	25	10.5	252.4088	0.17482	0.01482	0.0	0.0	0.0	0.0	3.22255	0.14352	967.08747
587	1	25	11.5	350.34722	0.34802	0.02057	0.16745	31.98981	0.0002	1.82408	3350.95393	0.71596	2514592.0
588	1	25	12.5	299.09664	0.3214	0.01756	0.14384	28.97539	0.00019	1.56691	3447.99813	0.67287	2526048.0
589	1	25	13.5	342.13791	0.18008	0.02008	0.0	0.0	0.0	0.0	4.05721	0.14352	1535.90705
590	1	25	14.5	352.37552	0.18951	0.02068	0.00883	12.32272	0.02096	0.09616	4.81926	0.3671	2461.50367
591	1	25	15.5	271.91398	0.18911	0.01596	0.01315	13.19905	0.02051	0.14328	5.9916	0.38477	2393.65385
592	1	25	16.5	109.71359	0.16644	0.00644	0.0	0.0	0.0	0.0	6.22435	0.14352	935.76602
660	1	28	12.5	241.53119	0.24716	0.01418	0.07298	21.55668	0.00018	0.79497	627.90311	0.54825	787600.0
661	1	28	13.5	322.66504	0.17894	0.01894	0.0	0.0	0.0	0.0	4.09604	0.14352	1465.81617
662	1	28	14.5	347.51073	0.18826	0.0204	0.00786	11.79941	0.01872	0.08559	4.80585	0.35656	2416.75367
663	1	28	15.5	276.9197	0.18994	0.01626	0.01369	13.42552	0.02044	0.14912	6.03288	0.38934	2498.03205
664	1	28	16.5	95.36749	0.1656	0.0056	0.0	0.0	0.0	0.0	5.90793	0.14352	873.08096
681	1	29	9.5	157.97801	0.16927	0.00927	0.0	0.0	0.0	0.0	3.2512	0.14352	600.79799
682	1	29	10.5	266.93878	0.17567	0.01567	0.0	0.0	0.0	0.0	3.3971	0.14352	1080.04971
683	1	29	11.5	299.31954	0.32533	0.01757	0.14776	29.64985	0.00017	1.60957	2153.03049	0.68291	1689760.0
686	1	29	14.5	195.94847	0.1715	0.0115	0.0	0.0	0.0	0.0	4.54623	0.14352	1278.39226
687	1	29	15.5	150.72261	0.16885	0.00885	0.0	0.0	0.0	0.0	5.08269	0.14352	1241.83947
707	1	30	11.5	202.29495	0.26039	0.01187	0.08852	22.73851	0.00021	0.96425	486.24862	0.56973	554184.0
708	1	30	12.5	220.37401	0.25182	0.01294	0.07888	21.89298	0.00019	0.85929	748.35228	0.55441	793328.0
709	1	30	13.5	223.85398	0.17314	0.01314	0.0	0.0	0.0	0.0	4.24154	0.14352	1124.73313
710	1	30	14.5	204.90083	0.17203	0.01203	0.0	0.0	0.0	0.0	4.61317	0.14352	1363.61245
711	1	30	15.5	151.97947	0.16892	0.00892	0.0	0.0	0.0	0.0	5.06878	0.14352	1251.54403
752	2	1	8.5	36.83123	0.16216	0.00216	0.0	0.0	0.0	0.0	3.3558	0.14352	133.13812
753	2	1	9.5	178.51098	0.17048	0.01048	0.0	0.0	0.0	0.0	3.17024	0.14352	659.53237
754	2	1	10.5	346.65542	0.18035	0.02035	0.0	0.0	0.0	0.0	3.07968	0.14352	1506.1684
755	2	1	11.5	558.24438	0.40517	0.03277	0.2124	37.8695	0.00023	2.31373	10231.97546	0.78716	6709956.43925
756	2	1	12.5	457.73853	0.38774	0.02687	0.20087	35.50882	0.00838	2.18816	10646.43296	0.76057	7767168.0
757	2	1	13.5	449.92391	0.18947	0.02641	0.00306	8.9884	0.02496	0.03333	4.0643	0.30063	2140.09862
758	2	1	14.5	450.39165	0.19951	0.02644	0.01307	14.74619	0.02937	0.14237	5.16268	0.41595	3789.53005
759	2	1	15.5	361.62145	0.20423	0.02123	0.023	16.74537	0.03284	0.25059	7.21574	0.45591	3969.9797
760	2	1	16.5	160.66057	0.16943	0.00943	0.0	0.0	0.0	0.0	7.72454	0.14352	1611.32025
805	2	3	13.5	239.38449	0.17405	0.01405	0.0	0.0	0.0	0.0	4.35361	0.14352	1190.73761
806	2	3	14.5	323.41154	0.18193	0.01898	0.00294	7.79533	0.00738	0.03206	4.76882	0.27746	2149.70332
807	2	3	15.5	302.7616	0.19418	0.01777	0.01641	14.51539	0.02289	0.17875	6.42256	0.41131	2982.44725
808	2	3	16.5	139.93078	0.16821	0.00821	0.0	0.0	0.0	0.0	7.24798	0.14352	1402.44845
876	2	6	12.5	281.13514	0.28934	0.0165	0.11283	25.93577	0.00019	1.22912	1709.70705	0.62487	1563744.0
877	2	6	13.5	242.41389	0.17423	0.01423	0.0	0.0	0.0	0.0	4.39894	0.14352	1228.41092
897	2	7	9.5	206.01157	0.17209	0.01209	0.0	0.0	0.0	0.0	3.32401	0.14352	789.57041
898	2	7	10.5	357.34967	0.18098	0.02098	0.0	0.0	0.0	0.0	3.29027	0.14352	1458.38595
899	2	7	11.5	569.85488	0.40185	0.03345	0.2084	37.56318	0.00018	2.2701	9960.52973	0.78386	6733905.52102
900	2	7	12.5	473.24562	0.38724	0.02778	0.19946	35.53214	0.01526	2.17272	10394.57792	0.76085	7858816.0
901	2	7	13.5	371.64786	0.18182	0.02182	0.0	0.0	0.0	0.0	4.34444	0.14352	1757.416
902	2	7	14.5	266.23788	0.17563	0.01563	0.0	0.0	0.0	0.0	4.82311	0.14352	1766.29587
922	2	8	10.5	181.55348	0.17066	0.01066	0.0	0.0	0.0	0.0	4.01366	0.14352	821.25427
923	2	8	11.5	317.39219	0.3228	0.01863	0.14417	29.5272	0.00024	1.57043	2180.76379	0.6811	1873056.0
924	2	8	12.5	355.30881	0.32418	0.02086	0.14333	29.47052	0.00021	1.56128	3343.67368	0.68026	2990016.0
925	2	8	13.5	295.95454	0.17737	0.01737	0.0	0.0	0.0	0.0	4.46201	0.14352	1422.51582
926	2	8	14.5	223.28703	0.17311	0.01311	0.0	0.0	0.0	0.0	4.83436	0.14352	1510.4996
928	2	8	16.5	105.9256	0.16622	0.00622	0.0	0.0	0.0	0.0	6.05374	0.14352	1079.65401
944	2	9	8.5	62.7186	0.16368	0.00368	0.0	0.0	0.0	0.0	3.31223	0.14352	221.90529
945	2	9	9.5	233.97464	0.17373	0.01373	0.0	0.0	0.0	0.0	3.20417	0.14352	874.59719
946	2	9	10.5	386.33543	0.18268	0.02268	0.0	0.0	0.0	0.0	3.33216	0.14352	1594.877
947	2	9	11.5	626.77456	0.41241	0.03679	0.21562	38.6592	0.00983	2.34877	12050.65852	0.79548	8170589.33564
948	2	9	12.5	498.97209	0.40009	0.02929	0.2108	36.74459	0.01624	2.29629	12926.70297	0.77481	9068390.27636
949	2	9	13.5	467.98148	0.19162	0.02747	0.00415	10.26685	0.03097	0.04522	4.34617	0.32589	2241.51095
950	2	9	14.5	449.10478	0.19747	0.02636	0.0111	14.02777	0.02682	0.12095	5.10997	0.40149	3517.9976
951	2	9	15.5	345.28379	0.20057	0.02027	0.0203	15.95924	0.02963	0.22116	6.81503	0.44026	3749.129
952	2	9	16.5	196.96201	0.19591	0.01156	0.02435	15.12905	0.02381	0.26529	9.0674	0.42364	2373.5199
968	2	10	8.5	59.0852	0.16347	0.00347	0.0	0.0	0.0	0.0	3.37923	0.14352	212.39636
969	2	10	9.5	236.56209	0.17389	0.01389	0.0	0.0	0.0	0.0	3.2331	0.14352	889.8955
970	2	10	10.5	385.46912	0.18263	0.02263	0.0	0.0	0.0	0.0	3.37842	0.14352	1613.5613
971	2	10	11.5	611.3586	0.40864	0.03589	0.21276	38.28025	0.00966	2.31762	11437.30493	0.79152	7752134.82226
972	2	10	12.5	478.58192	0.38822	0.02809	0.20013	35.62151	0.01439	2.18007	10678.65902	0.7619	7625538.41697
973	2	10	13.5	411.79707	0.18417	0.02417	0.0	0.0	8e-05	2e-05	4.42959	0.14352	2003.541
974	2	10	14.5	353.02097	0.1865	0.02072	0.00578	10.61672	0.01381	0.06294	4.91777	0.33286	2440.57832
975	2	10	15.5	250.11555	0.18246	0.01468	0.00778	10.72122	0.01199	0.08473	5.94101	0.33494	2228.01582
976	2	10	16.5	166.76269	0.16979	0.00979	0.0	0.0	0.0	0.0	7.92673	0.14352	1839.48577
992	2	11	8.5	68.99527	0.16405	0.00405	0.0	0.0	0.0	0.0	3.33235	0.14352	243.06306
993	2	11	9.5	239.48227	0.17406	0.01406	0.0	0.0	0.0	0.0	3.27508	0.14352	913.75344
994	2	11	10.5	378.4614	0.18222	0.02222	0.0	0.0	0.0	0.0	3.42437	0.14352	1591.91112
995	2	11	11.5	408.5243	0.3474	0.02398	0.16342	32.15593	0.00022	1.78017	3570.6708	0.71821	3081664.0
1016	2	12	8.5	51.49258	0.16302	0.00302	0.0	0.0	0.0	0.0	3.97942	0.14352	215.37444
1017	2	12	9.5	155.36053	0.16912	0.00912	0.0	0.0	0.0	0.0	4.0842	0.14352	698.58747
1018	2	12	10.5	243.31866	0.17428	0.01428	0.0	0.0	0.0	0.0	4.04718	0.14352	1124.0416
1019	2	12	11.5	326.95886	0.32368	0.01919	0.14449	29.64548	0.00019	1.57397	2316.41911	0.68284	1930336.0
1020	2	12	12.5	294.29791	0.28932	0.01728	0.11204	26.00454	0.0002	1.22053	1662.99789	0.62601	1643936.0
1021	2	12	13.5	367.90711	0.1816	0.0216	0.0	0.0	0.0	0.0	4.48896	0.14352	1792.42815
1022	2	12	14.5	405.64271	0.19097	0.02381	0.00716	11.8804	0.01638	0.07797	5.06005	0.35819	2939.1469
1023	2	12	15.5	371.89746	0.20385	0.02183	0.02202	16.57385	0.02905	0.2399	7.2646	0.4525	4278.7476
1024	2	12	16.5	224.93448	0.20143	0.0132	0.02823	16.33667	0.02695	0.30752	9.72792	0.44779	2940.7297
1040	2	13	8.5	75.64759	0.16444	0.00444	0.0	0.0	0.0	0.0	3.3608	0.14352	266.9271
1041	2	13	9.5	261.9461	0.17538	0.01538	0.0	0.0	0.0	0.0	3.21853	0.14352	1008.91376
1042	2	13	10.5	398.20306	0.18337	0.02337	0.0	0.0	0.0	0.0	3.55689	0.14352	1717.9395
1043	2	13	11.5	645.53248	0.41113	0.03789	0.21324	38.56079	0.00843	2.32289	11976.06771	0.79446	8395154.54427
1044	2	13	12.5	514.9204	0.39938	0.03023	0.20916	36.81488	0.06308	2.27839	12390.36699	0.7756	9554304.0
1045	2	13	13.5	489.34134	0.19646	0.02872	0.00774	12.98259	0.08688	0.08429	4.53157	0.3804	2419.0613
1046	2	13	14.5	482.24415	0.20135	0.02831	0.01304	14.99585	0.04519	0.14205	5.43673	0.42097	3992.3547
1047	2	13	15.5	383.3084	0.20471	0.0225	0.02221	16.70046	0.02885	0.24193	7.32429	0.45501	4478.67295
1048	2	13	16.5	232.99011	0.20355	0.01368	0.02987	16.77942	0.02913	0.32539	10.00125	0.45658	3121.17935
1049	2	13	17.5	35.66839	0.16209	0.00209	0.0	0.0	0.0	0.0	6.50825	0.14352	363.27811
1096	2	15	16.5	121.47607	0.16713	0.00713	0.0	0.0	0.0	0.0	6.49788	0.14352	1310.64082
1118	2	16	14.5	215.07639	0.17262	0.01262	0.0	0.0	0.0	0.0	4.92712	0.14352	1500.03692
1119	2	16	15.5	196.08904	0.17151	0.01151	0.0	0.0	0.0	0.0	5.60103	0.14352	1724.51175
1304	2	24	8.5	91.84933	0.16539	0.00539	0.0	0.0	0.0	0.0	4.08987	0.14352	380.42177
1305	2	24	9.5	252.98012	0.17485	0.01485	0.0	0.0	0.0	0.0	4.14431	0.14352	1140.85614
1306	2	24	10.5	321.34348	0.17886	0.01886	0.0	0.0	0.0	0.0	4.38097	0.14352	1569.46955
1307	2	24	11.5	308.60875	0.17838	0.01812	0.00027	0.0	0.00066	0.00292	5.07969	0.14352	17055.5486
1328	2	25	8.5	64.95464	0.16381	0.00381	0.0	0.0	0.0	0.0	4.21012	0.14352	282.02978
1329	2	25	9.5	152.1129	0.16893	0.00893	0.0	0.0	0.0	0.0	4.73159	0.14352	749.65605
1330	2	25	10.5	239.60712	0.17406	0.01406	0.0	0.0	0.0	0.0	4.55747	0.14352	1185.17715
1331	2	25	11.5	290.62649	0.17706	0.01706	0.0	0.0	0.0	0.0	4.57718	0.14352	1442.64977
1332	2	25	12.5	310.67906	0.17824	0.01824	0.0	0.0	0.0	0.0	4.71642	0.14352	1580.59047
1333	2	25	13.5	396.69441	0.18428	0.02329	0.001	4.52624	0.00648	0.01087	4.95957	0.21693	2047.4996
1334	2	25	14.5	433.79567	0.19294	0.02546	0.00747	12.28883	0.02368	0.0814	5.45747	0.36642	3274.7719
1335	2	25	15.5	393.84244	0.20108	0.02312	0.01796	15.73371	0.02521	0.19566	7.00639	0.43576	4481.57225
1336	2	25	16.5	251.25028	0.20557	0.01475	0.03083	17.15203	0.02766	0.3358	10.47083	0.46395	3875.9976
1337	2	25	17.5	61.44294	0.16361	0.00361	0.0	0.0	0.0	0.0	8.3379	0.14352	761.60166
1352	2	26	8.5	91.8265	0.16539	0.00539	0.0	0.0	0.0	0.0	4.59587	0.14352	419.01776
1353	2	26	9.5	241.26174	0.17416	0.01416	0.0	0.0	0.0	0.0	4.30388	0.14352	1118.84355
1354	2	26	10.5	374.66705	0.18199	0.02199	0.0	0.0	0.0	0.0	4.41451	0.14352	1826.05722
1355	2	26	11.5	463.82231	0.19738	0.02723	0.01015	14.10831	0.1587	0.11055	4.5679	0.40311	2184.05722
1356	2	26	12.5	488.23346	0.20016	0.02866	0.0115	14.81769	0.15981	0.12528	4.93826	0.41739	2755.41112
1357	2	26	13.5	511.47766	0.2024	0.03002	0.01237	15.32422	0.16972	0.13479	5.09605	0.42756	2733.03612
1358	2	26	14.5	503.27943	0.20617	0.02954	0.01663	16.57818	0.14227	0.18112	5.82297	0.45259	4216.1047
1359	2	26	15.5	412.31478	0.20441	0.0242	0.02021	16.41984	0.025	0.22015	7.50336	0.44944	5061.8726
1360	2	26	16.5	254.14807	0.20506	0.01492	0.03014	17.05258	0.02712	0.32831	10.34665	0.46199	3898.3726
1361	2	26	17.5	63.94781	0.16375	0.00375	0.0	0.0	0.0	0.0	9.05345	0.14352	866.76239
1376	2	27	8.5	110.86735	0.16651	0.00651	0.0	0.0	0.0	0.0	4.38528	0.14352	483.7083
1377	2	27	9.5	281.26992	0.17651	0.01651	0.0	0.0	0.0	0.0	4.0533	0.14352	1253.85166
1378	2	27	10.5	406.34846	0.18385	0.02385	0.0	0.0	0.0	0.0	4.40324	0.14352	1783.54827
1379	2	27	11.5	470.70969	0.19809	0.02763	0.01046	14.28694	0.15904	0.11398	4.74708	0.40671	2229.59862
1380	2	27	12.5	488.0372	0.20039	0.02865	0.01174	14.90819	0.1598	0.12787	5.05071	0.41921	2791.9395
1381	2	27	13.5	513.95463	0.20267	0.03017	0.01251	15.38675	0.16963	0.13622	5.14704	0.42881	2765.8738
1382	2	27	14.5	501.90825	0.20668	0.02946	0.01722	16.80866	0.16672	0.18761	5.83849	0.45716	4238.4797
1383	2	27	15.5	414.09862	0.2046	0.02431	0.02029	16.45139	0.02479	0.22104	7.57432	0.45007	5106.6226
1384	2	27	16.5	258.13886	0.20556	0.01515	0.03041	17.14641	0.02684	0.33125	10.45076	0.46384	3993.80435
1385	2	27	17.5	65.83342	0.16386	0.00386	0.0	0.0	0.0	0.0	8.81569	0.14352	906.28105
1400	2	28	8.5	89.30915	0.16524	0.00524	0.0	0.0	0.0	0.0	4.32985	0.14352	388.99361
1408	2	28	16.5	146.20405	0.16858	0.00858	0.0	0.0	0.0	0.0	6.81533	0.14352	1690.22442
1409	2	28	17.5	54.04368	0.16317	0.00317	0.0	0.0	0.0	0.0	7.08401	0.14352	689.24528
1426	3	1	10.5	215.28004	0.17264	0.01264	0.0	0.0	0.0	0.0	4.89125	0.14352	1100.15037
1427	3	1	11.5	284.2107	0.17668	0.01668	0.0	0.0	0.0	0.0	4.67638	0.14352	1423.24056
1428	3	1	12.5	303.09396	0.17779	0.01779	0.0	0.0	0.0	0.0	4.95848	0.14352	1597.75854
1429	3	1	13.5	298.73787	0.17754	0.01754	0.0	0.0	0.0	0.0	5.17843	0.14352	1597.75854
1430	3	1	14.5	267.88675	0.17572	0.01572	0.0	0.0	0.0	0.0	5.46453	0.14352	1924.37052
1431	3	1	15.5	206.0003	0.17209	0.01209	0.0	0.0	0.0	0.0	5.94611	0.14352	1922.92087
1448	3	2	8.5	115.77612	0.1668	0.0068	0.0	0.0	0.0	0.0	4.18894	0.14352	478.67481
1449	3	2	9.5	258.73059	0.17519	0.01519	0.0	0.0	0.0	0.0	4.59274	0.14352	1247.86221
1450	3	2	10.5	379.46684	0.18227	0.02227	0.0	0.0	0.0	0.0	4.64566	0.14352	1747.74472
1451	3	2	11.5	454.6654	0.19736	0.02669	0.01067	14.26961	0.15884	0.11623	4.77903	0.40636	2205.7074
1452	3	2	12.5	469.19333	0.19937	0.02754	0.01183	14.8241	0.15965	0.12882	5.05418	0.41752	2666.63595
1453	3	2	13.5	459.18716	0.19829	0.02695	0.01133	14.57455	0.16117	0.12343	5.10652	0.4125	2439.8535
1454	3	2	14.5	383.88531	0.18706	0.02253	0.00452	9.92658	0.01136	0.04928	5.59927	0.31913	2673.9996
1455	3	2	15.5	257.24864	0.178	0.0151	0.0029	7.03774	0.00477	0.03164	6.23875	0.26301	2381.54179
1456	3	2	16.5	153.66581	0.16902	0.00902	0.0	0.0	0.0	0.0	6.7551	0.14352	1588.08727
1472	3	3	8.5	104.04238	0.16611	0.00611	0.0	0.0	0.0	0.0	4.34042	0.14352	449.78339
1473	3	3	9.5	260.99709	0.17532	0.01532	0.0	0.0	0.0	0.0	4.65956	0.14352	1265.00587
1474	3	3	10.5	393.48921	0.1831	0.0231	0.0	0.0	0.0	0.0	4.6732	0.14352	1826.05722
1475	3	3	11.5	460.29764	0.19789	0.02702	0.01087	14.38766	0.15904	0.11838	4.84289	0.40874	2242.23577
1476	3	3	12.5	474.95829	0.20007	0.02788	0.01219	14.99836	0.15982	0.13279	5.20497	0.42102	2744.22362
1477	3	3	13.5	500.29702	0.20215	0.02937	0.01278	15.40431	0.16873	0.13922	5.27758	0.42917	2733.76095
1478	3	3	14.5	484.3203	0.20497	0.02843	0.01654	16.51071	0.16326	0.18018	5.81027	0.45125	3993.80435
1479	3	3	15.5	383.27265	0.19905	0.0225	0.01656	15.25991	0.02332	0.18035	7.055	0.42627	4438.2719
1480	3	3	16.5	215.05488	0.19056	0.01262	0.01793	13.82549	0.01638	0.19537	8.43967	0.39741	2846.7476
1481	3	3	17.5	57.63666	0.16338	0.00338	0.0	0.0	0.0	0.0	7.37507	0.14352	766.4373
1504	3	4	16.5	131.32802	0.16771	0.00771	0.0	0.0	0.0	0.0	6.52505	0.14352	1465.02477
1520	3	5	8.5	108.20461	0.16635	0.00635	0.0	0.0	0.0	0.0	5.07766	0.14352	533.67299
1521	3	5	9.5	271.20703	0.17592	0.01592	0.0	0.0	0.0	0.0	4.64912	0.14352	1219.53105
1522	3	5	10.5	395.81889	0.18323	0.02323	0.0	0.0	0.0	0.0	4.82875	0.14352	1870.80722
1523	3	5	11.5	464.68982	0.19852	0.02728	0.01124	14.56608	0.15938	0.12242	4.96832	0.41233	2306.3949
1524	3	5	12.5	478.55932	0.20062	0.02809	0.01253	15.14714	0.15985	0.13652	5.32795	0.42401	2800.16112
1525	3	5	13.5	503.49784	0.20261	0.02956	0.01305	15.51962	0.1686	0.14216	5.40057	0.43147	2786.00775
1526	3	5	14.5	489.26439	0.20614	0.02872	0.01742	16.82689	0.18126	0.18971	5.96123	0.45752	4060.92935
1527	3	5	15.5	388.0026	0.1997	0.02278	0.01692	15.39406	0.02279	0.18435	7.23421	0.42896	4571.07225
1528	3	5	16.5	219.57651	0.19091	0.01289	0.01802	13.9127	0.01662	0.19629	8.51508	0.39917	2937.69725
1529	3	5	17.5	62.25445	0.16365	0.00365	0.0	0.0	0.0	0.0	7.39392	0.14352	826.84802
1544	3	6	8.5	111.60365	0.16655	0.00655	0.0	0.0	0.0	0.0	5.15541	0.14352	553.43232
1545	3	6	9.5	271.22307	0.17592	0.01592	0.0	0.0	0.0	0.0	4.85627	0.14352	1265.00587
1546	3	6	10.5	398.43783	0.18339	0.02339	0.0	0.0	0.0	0.0	4.905	0.14352	1912.59135
1547	3	6	11.5	465.65152	0.19884	0.02733	0.01151	14.6786	0.15957	0.12535	5.03816	0.41459	2340.68222
1548	3	6	12.5	481.35029	0.20092	0.02826	0.01266	15.21151	0.16	0.13792	5.38241	0.4253	2828.8547
1549	3	6	13.5	502.84338	0.20263	0.02952	0.01312	15.53803	0.16837	0.14287	5.42884	0.43184	2788.97362
1550	3	6	14.5	481.40458	0.20538	0.02826	0.01712	16.69942	0.18084	0.18651	5.92755	0.45499	3922.19725
1551	3	6	15.5	356.61504	0.19434	0.02093	0.0134	14.10305	0.02209	0.146	6.86954	0.403	3783.46515
1552	3	6	16.5	206.58785	0.19021	0.01213	0.01808	13.76034	0.01757	0.19698	8.50459	0.3961	2696.44117
1553	3	6	17.5	60.33909	0.16354	0.00354	0.0	0.0	0.0	0.0	7.45883	0.14352	794.76846
1568	3	7	8.5	114.50498	0.16672	0.00672	0.0	0.0	0.0	0.0	5.2052	0.14352	572.26898
1569	3	7	9.5	277.03853	0.17626	0.01626	0.0	0.0	0.0	0.0	4.79257	0.14352	1273.98561
1570	3	7	10.5	398.32184	0.18338	0.02338	0.0	0.0	0.0	0.0	4.981	0.14352	1926.74472
1571	3	7	11.5	464.34368	0.19895	0.02726	0.0117	14.74397	0.15956	0.12743	5.10177	0.41591	2363.05722
1572	3	7	12.5	480.92733	0.20104	0.02823	0.01281	15.26377	0.15996	0.13959	5.43052	0.42635	2849.78005
1573	3	7	13.5	503.70554	0.2028	0.02957	0.01323	15.58215	0.16823	0.1441	5.48176	0.43273	2806.4797
1574	3	7	14.5	486.56016	0.20568	0.02856	0.01712	16.72957	0.18079	0.18647	5.95502	0.45559	4032.6226
1575	3	7	15.5	388.3704	0.19939	0.0228	0.01659	15.30297	0.02234	0.18069	7.28647	0.42713	4548.69725
1576	3	7	16.5	221.17556	0.19026	0.01298	0.01728	13.73383	0.01591	0.18822	8.48185	0.39556	2966.004
1577	3	7	17.5	65.63563	0.16385	0.00385	0.0	0.0	0.0	0.0	7.42692	0.14352	883.14793
1592	3	8	8.5	117.52683	0.1669	0.0069	0.0	0.0	0.0	0.0	5.28852	0.14352	592.76978
1593	3	8	9.5	278.58683	0.17635	0.01635	0.0	0.0	0.0	0.0	4.87068	0.14352	1296.36061
1594	3	8	10.5	402.50546	0.18363	0.02363	0.0	0.0	0.0	0.0	5.03507	0.14352	1940.8981
1595	3	8	11.5	466.34902	0.19927	0.02737	0.01189	14.83112	0.15971	0.12953	5.16998	0.41766	2393.65385
1596	3	8	12.5	482.87922	0.20139	0.02835	0.01304	15.35793	0.1601	0.14209	5.50998	0.42824	2873.6047
1597	3	8	13.5	505.38734	0.2031	0.02967	0.01343	15.66218	0.16813	0.14629	5.55109	0.43433	2849.78005
1598	3	8	14.5	488.48928	0.20612	0.02867	0.01745	16.83639	0.18066	0.19006	6.07758	0.45771	4083.30435
1599	3	8	15.5	388.61042	0.199	0.02281	0.01619	15.19068	0.02198	0.17638	7.29092	0.42488	4593.44725
1600	3	8	16.5	224.99495	0.19314	0.01321	0.01994	14.49154	0.01932	0.21716	8.80112	0.41083	3025.7476
1601	3	8	17.5	67.94275	0.16399	0.00399	0.0	0.0	0.0	0.0	7.8679	0.14352	939.08543
1616	3	9	8.5	120.61112	0.16708	0.00708	0.0	0.0	0.0	0.0	5.35642	0.14352	614.40331
1617	3	9	9.5	277.28533	0.17628	0.01628	0.0	0.0	0.0	0.0	5.09556	0.14352	1344.99472
1618	3	9	10.5	402.12193	0.1836	0.0236	0.0	0.0	0.0	0.0	5.12157	0.14352	1982.68222
1619	3	9	11.5	467.98269	0.19952	0.02747	0.01205	14.90295	0.15979	0.13129	5.22713	0.4191	2418.99472
1620	3	9	12.5	491.35663	0.30924	0.02884	0.1204	29.08735	0.16019	1.31156	2174.58117	0.67455	6163328.0
1621	3	9	13.5	507.13961	0.20321	0.02977	0.01345	15.67784	0.16804	0.14647	5.58198	0.43464	2851.2297
1622	3	9	14.5	486.23541	0.20601	0.02854	0.01747	16.83009	0.18048	0.19028	6.09261	0.45758	4078.82225
1623	3	9	15.5	386.41886	0.19851	0.02268	0.01582	15.06775	0.0217	0.17237	7.28586	0.42241	4615.82225
1624	3	9	16.5	227.00595	0.19415	0.01333	0.02083	14.72134	0.01919	0.22686	8.98034	0.41545	3234.504
1625	3	9	17.5	68.64051	0.16403	0.00403	0.0	0.0	0.0	0.0	7.63024	0.14352	812.30782
1640	3	10	8.5	123.23581	0.16723	0.00723	0.0	0.0	0.0	0.0	5.43991	0.14352	633.23997
1641	3	10	9.5	279.51902	0.17641	0.01641	0.0	0.0	0.0	0.0	5.16706	0.14352	1367.36972
1642	3	10	10.5	403.78311	0.18382	0.0237	0.00011	0.0	0.00325	0.00124	5.19861	0.14352	2005.05722
1643	3	10	11.5	540.36694	0.34159	0.03172	0.14987	32.44471	0.15998	1.63255	4390.68055	0.72207	5934208.0
1644	3	10	12.5	522.96257	0.38847	0.0307	0.19777	36.38541	0.16033	2.15439	9725.92433	0.77075	8030994.96603
1645	3	10	13.5	509.66689	0.20356	0.02992	0.01364	15.76046	0.16797	0.14862	5.6651	0.43629	2895.9797
1646	3	10	14.5	491.44781	0.20644	0.02885	0.0176	16.89872	0.18037	0.19167	6.17757	0.45894	4144.4976
1647	3	10	15.5	392.86409	0.19935	0.02306	0.01629	15.24631	0.02153	0.1774	7.42335	0.426	4682.94725
1648	3	10	16.5	226.99726	0.18975	0.01332	0.01642	13.56578	0.01453	0.17889	8.54658	0.39217	3116.69725
1649	3	10	17.5	72.13514	0.16423	0.00423	0.0	0.0	0.0	0.0	7.67005	0.14352	995.74776
1664	3	11	8.5	126.91687	0.16745	0.00745	0.0	0.0	0.0	0.0	5.5065	0.14352	655.61497
1665	3	11	9.5	284.12428	0.17668	0.01668	0.0	0.0	0.0	0.0	5.21357	0.14352	1397.96635
1666	3	11	10.5	405.65149	0.18454	0.02381	0.00073	3.46155	0.01447	0.0079	5.26739	0.19843	2035.65385
1667	3	11	11.5	607.58074	0.36401	0.03566	0.16835	34.82746	0.16003	1.83385	6703.88201	0.7524	6209152.0
1668	3	11	12.5	523.82765	0.38827	0.03075	0.19752	36.36996	0.16027	2.15162	9690.84	0.77057	8018094.76195
1669	3	11	13.5	509.19663	0.20369	0.02989	0.0138	15.81265	0.16794	0.15037	5.74501	0.43734	2916.90505
1670	3	11	14.5	491.70944	0.20659	0.02886	0.01773	16.93982	0.18021	0.19315	6.24443	0.45976	4150.42935
1671	3	11	15.5	392.85635	0.19916	0.02306	0.0161	15.19034	0.02126	0.17533	7.46748	0.42487	4705.32225
1672	3	11	16.5	229.13592	0.19073	0.01345	0.01728	13.83484	0.01545	0.18823	8.6735	0.3976	3139.07225
1673	3	11	17.5	74.42622	0.16437	0.00437	0.0	0.0	0.0	0.0	8.02961	0.14352	1034.5416
1688	3	12	8.5	136.11389	0.16799	0.00799	0.0	0.0	0.0	0.0	5.34101	0.14352	687.39997
1689	3	12	9.5	287.74623	0.17689	0.01689	0.0	0.0	0.0	0.0	5.18483	0.14352	1391.98577
1690	3	12	10.5	405.98993	0.18492	0.02383	0.00109	4.91767	0.0182	0.01188	5.33868	0.2239	2049.0824
1691	3	12	11.5	608.37311	0.36564	0.03571	0.16993	35.00862	0.16004	1.85104	7154.1137	0.7546	6621568.0
1692	3	12	12.5	520.46074	0.38173	0.03055	0.19118	35.76797	0.16038	2.08255	8631.95164	0.76362	7721344.0
1693	3	12	13.5	506.69216	0.20348	0.02974	0.01373	15.77678	0.16837	0.14961	5.66964	0.43662	2873.6047
1694	3	12	14.5	467.85277	0.20447	0.02746	0.01701	16.59357	0.17969	0.18526	6.14089	0.45289	3832.69725
1695	3	12	15.5	350.87929	0.19422	0.0206	0.01362	14.11513	0.02056	0.14842	7.19782	0.40325	3811.7719
1696	3	12	16.5	223.92227	0.19124	0.01314	0.01809	13.99241	0.01678	0.19711	8.72954	0.40077	3115.2476
1697	3	12	17.5	74.69199	0.16438	0.00438	0.0	0.0	0.0	0.0	8.09664	0.14352	1057.27901
1712	3	13	8.5	140.03616	0.16822	0.00822	0.0	0.0	0.0	0.0	5.25289	0.14352	688.5205
1713	3	13	9.5	290.4953	0.17705	0.01705	0.0	0.0	0.0	0.0	5.28672	0.14352	1433.04507
1714	3	13	10.5	409.217	0.18991	0.02402	0.00588	11.27875	0.06266	0.0641	5.41719	0.34611	2082.6449
1715	3	13	11.5	615.74813	0.36472	0.03614	0.16858	34.95028	0.16011	1.83636	7050.78101	0.75389	6667392.0
1716	3	13	12.5	522.48102	0.3848	0.03067	0.19413	36.05524	0.16039	2.11469	9011.0853	0.76696	7662064.17906
1717	3	13	13.5	510.598	0.20396	0.02997	0.01399	15.88275	0.16749	0.15241	5.80535	0.43874	2940.7297
1718	3	13	14.5	488.1138	0.20662	0.02865	0.01796	16.98594	0.17985	0.19568	6.38784	0.46067	4211.6226
1719	3	13	15.5	391.28989	0.19859	0.02297	0.01562	15.04825	0.02246	0.17014	7.47827	0.42202	4750.07225
1720	3	13	16.5	228.12066	0.19255	0.01339	0.01916	14.33553	0.01837	0.20873	8.90408	0.40769	3116.69725
1721	3	13	17.5	68.55778	0.16402	0.00402	0.0	0.0	0.0	0.0	7.33863	0.14352	961.82285
1856	3	19	8.5	139.9627	0.16822	0.00822	0.0	0.0	0.0	0.0	5.82128	0.14352	750.77657
1857	3	19	9.5	282.17746	0.17656	0.01656	0.0	0.0	0.0	0.0	5.81793	0.14352	1502.34455
1858	3	19	10.5	340.32145	0.17998	0.01998	0.0	0.0	0.0	0.0	5.72175	0.14352	1858.82832
1859	3	19	11.5	354.6274	0.26645	0.02082	0.08564	24.23397	0.00019	0.93287	951.90158	0.59609	1377584.0
1862	3	19	14.5	265.09368	0.17556	0.01556	0.0	0.0	0.0	0.0	6.06517	0.14352	1875.92982
1863	3	19	15.5	225.44662	0.17345	0.01323	0.00022	0.0	0.0003	0.00236	6.5388	0.14352	2230.17254
1864	3	19	16.5	174.45948	0.17055	0.01024	0.00031	0.0	0.00027	0.00333	7.44023	0.14352	2207.74872
1865	3	19	17.5	78.23947	0.16459	0.00459	0.0	0.0	0.0	0.0	7.77147	0.14352	1110.25063
1880	3	20	8.5	112.36529	0.1666	0.0066	0.0	0.0	0.0	0.0	6.01444	0.14352	636.39925
1881	3	20	9.5	184.55007	0.17083	0.01083	0.0	0.0	0.0	0.0	5.86894	0.14352	1045.3334
1882	3	20	10.5	341.46345	0.18004	0.02004	0.0	0.0	0.0	0.0	5.81283	0.14352	1890.8746
1883	3	20	11.5	545.74249	0.34134	0.03204	0.14931	32.68958	0.16014	1.62646	4669.88106	0.72532	4639680.0
1884	3	20	12.5	523.01954	0.36633	0.0307	0.17563	34.40029	0.16069	1.91319	6081.05398	0.74717	6484096.0
1885	3	20	13.5	510.90669	0.20491	0.02999	0.01492	16.18778	0.16673	0.16256	6.20628	0.44482	3052.6047
1886	3	20	14.5	481.79687	0.20652	0.02828	0.01824	17.03424	0.17844	0.19867	6.66728	0.46162	4099.7476
1887	3	20	15.5	381.94549	0.19885	0.02242	0.01643	15.35497	0.0445	0.17902	7.63898	0.42818	4594.8969
1888	3	20	16.5	209.91397	0.18468	0.01232	0.01236	12.07574	0.01222	0.13461	8.29324	0.36212	2758.56409
1904	3	21	8.5	151.77011	0.16891	0.00891	0.0	0.0	0.0	0.0	5.98563	0.14352	827.24372
1905	3	21	9.5	261.08104	0.17533	0.01533	0.0	0.0	0.0	0.0	5.88458	0.14352	1412.11972
1906	3	21	10.5	383.44108	0.19388	0.02251	0.01137	13.96204	0.11518	0.12386	6.00027	0.40016	2126.6035
1907	3	21	11.5	574.98874	0.34873	0.03375	0.15498	33.41736	0.16042	1.68824	5344.83766	0.73479	5372864.0
1908	3	21	12.5	523.53147	0.37152	0.03073	0.18079	34.87159	0.16071	1.96934	6692.73712	0.75294	6896512.0
1909	3	21	13.5	509.68242	0.20499	0.02992	0.01507	16.234	0.16776	0.16418	6.23199	0.44574	3052.6047
1910	3	21	14.5	475.40047	0.20608	0.02791	0.01817	16.97818	0.17814	0.19797	6.69476	0.46052	4011.69725
1911	3	21	15.5	363.43069	0.19361	0.02133	0.01228	13.76255	0.01982	0.13376	7.53641	0.39614	4214.5219
1912	3	21	16.5	224.20494	0.18604	0.01316	0.01288	12.43948	0.01164	0.14027	8.57904	0.36945	3027.19725
1913	3	21	17.5	83.91507	0.16493	0.00493	0.0	0.0	0.0	0.0	7.85156	0.14352	1191.13331
1960	3	23	16.5	179.65658	0.17165	0.01055	0.0011	2.44884	0.00094	0.01199	7.82271	0.18149	2324.15464
1961	3	23	17.5	89.91711	0.16528	0.00528	0.0	0.0	0.0	0.0	8.11829	0.14352	1285.46895
1977	3	24	9.5	191.92231	0.17127	0.01127	0.0	0.0	0.0	0.0	6.03892	0.14352	1101.2709
1978	3	24	10.5	242.5636	0.17424	0.01424	0.0	0.0	0.0	0.0	5.82632	0.14352	1375.52477
2008	3	25	16.5	183.54976	0.17262	0.01077	0.00184	4.35141	0.00159	0.02008	7.96063	0.21385	2350.22034
2009	3	25	17.5	94.43317	0.16554	0.00554	0.0	0.0	0.0	0.0	8.20802	0.14352	1307.48153
2025	3	26	9.5	197.99737	0.17162	0.01162	0.0	0.0	0.0	0.0	6.14802	0.14352	1146.74572
2026	3	26	10.5	249.83206	0.17467	0.01467	0.0	0.0	0.0	0.0	5.91189	0.14352	1443.3746
2029	3	26	13.5	329.29784	0.17933	0.01933	0.0	0.0	0.0	0.0	6.17578	0.14352	1910.21714
2030	3	26	14.5	354.95073	0.18518	0.02084	0.00435	9.5664	0.01923	0.04738	6.75713	0.312	2731.70699
2031	3	26	15.5	324.82987	0.18672	0.01907	0.00765	11.45223	0.01351	0.08332	7.39037	0.34959	3376.09989
2032	3	26	16.5	190.02589	0.17123	0.01115	7e-05	0.0	7e-05	0.00078	7.72048	0.14352	2090.73337
2048	3	27	8.5	112.52282	0.16661	0.00661	0.0	0.0	0.0	0.0	6.23121	0.14352	654.19989
2074	3	28	10.5	248.81378	0.17461	0.01461	0.0	0.0	0.0	0.0	6.00185	0.14352	1443.3746
2075	3	28	11.5	350.52091	0.22662	0.02058	0.04605	19.72213	0.00019	0.50161	279.41962	0.51386	736048.0
2076	3	28	12.5	395.72472	0.28615	0.02323	0.10292	26.89635	0.15968	1.12116	1207.1362	0.64053	1838688.0
2077	3	28	13.5	351.02807	0.18406	0.02061	0.00345	8.69124	0.02908	0.03763	6.33251	0.29482	2078.75447
2078	3	28	14.5	274.19621	0.17612	0.0161	2e-05	0.0	5e-05	0.00025	6.43801	0.14352	2124.95412
2097	3	29	9.5	202.06224	0.17186	0.01186	0.0	0.0	0.0	0.0	6.33825	0.14352	1199.71735
2098	3	29	10.5	306.02421	0.17796	0.01796	0.0	0.0	0.0	0.0	6.30438	0.14352	1822.23337
2099	3	29	11.5	438.3677	0.28835	0.02573	0.10261	27.4569	0.15975	1.11779	1404.3636	0.64946	2079264.0
2100	3	29	12.5	451.78714	0.31716	0.02652	0.13064	29.8889	0.16037	1.42307	2294.54468	0.68641	3081664.0
2101	3	29	13.5	474.44787	0.20398	0.02785	0.01613	16.34846	0.16704	0.17565	6.60919	0.44802	2912.28979
2102	3	29	14.5	462.43298	0.20621	0.02714	0.01906	17.14835	0.1766	0.20765	7.17356	0.46388	3832.69725
2103	3	29	15.5	387.32055	0.20495	0.02274	0.02221	17.25783	0.13568	0.24198	8.2801	0.46604	4817.19725
2104	3	29	16.5	240.58172	0.18731	0.01412	0.01318	12.76494	0.01267	0.14362	9.04487	0.37601	3267.25734
2105	3	29	17.5	104.62133	0.16614	0.00614	0.0	0.0	0.0	0.0	8.23856	0.14352	1512.80722
2119	3	30	7.5	64.37034	0.16378	0.00378	0.0	0.0	0.0	0.0	6.54753	0.14352	386.01552
2120	3	30	8.5	170.59293	0.17001	0.01001	0.0	0.0	0.0	0.0	6.79455	0.14352	1022.99168
2121	3	30	9.5	277.04424	0.17626	0.01626	0.0	0.0	0.0	0.0	6.6261	0.14352	1635.07832
2122	3	30	10.5	323.2925	0.17898	0.01898	0.0	0.0	0.0	0.0	6.42175	0.14352	1925.16192
2123	3	30	11.5	331.6434	0.21584	0.01947	0.03637	18.21441	0.0002	0.39623	195.2053	0.4848	559912.0
2191	4	2	7.5	79.10405	0.16464	0.00464	0.0	0.0	0.0	0.0	7.13751	0.14352	500.67075
2192	4	2	8.5	194.79469	0.17143	0.01143	0.0	0.0	0.0	0.0	7.32626	0.14352	1208.34355
2193	4	2	9.5	314.01746	0.17843	0.01843	0.0	0.0	0.0	0.0	7.01274	0.14352	1890.21635
2194	4	2	10.5	400.08784	0.19921	0.02349	0.01573	15.68586	0.15979	0.17134	6.97587	0.4348	2439.12867
2195	4	2	11.5	520.73925	0.33117	0.03057	0.1406	31.75643	0.16049	1.53162	3657.3805	0.71279	4112704.0
2196	4	2	12.5	458.6909	0.33131	0.02693	0.14438	31.20549	0.16049	1.57277	3116.83875	0.70519	3700288.0
2197	4	2	13.5	441.20313	0.20175	0.0259	0.01585	16.02608	0.16267	0.17263	6.73046	0.4416	2733.28979
2198	4	2	14.5	382.86724	0.19933	0.02247	0.01686	15.93309	0.16744	0.18367	7.07944	0.43974	2954.00734
2199	4	2	15.5	302.22063	0.18344	0.01774	0.0057	10.07015	0.00971	0.06213	7.57884	0.32198	3039.02524
2200	4	2	16.5	235.51098	0.18415	0.01382	0.01032	11.6586	0.01072	0.11247	9.01994	0.35373	3258.32865
2201	4	2	17.5	119.87613	0.17731	0.00704	0.01028	9.52649	0.00444	0.11195	10.24198	0.31121	2329.49472
2215	4	3	7.5	84.46702	0.16496	0.00496	0.0	0.0	0.0	0.0	7.37306	0.14352	541.88241
2216	4	3	8.5	206.56364	0.17213	0.01213	0.0	0.0	0.0	0.0	7.56952	0.14352	1303.4373
2217	4	3	9.5	341.1485	0.18975	0.02003	0.00973	12.81559	0.07338	0.10594	7.24816	0.37704	2074.42327
2218	4	3	10.5	429.69953	0.20183	0.02522	0.01661	16.16346	0.16018	0.18088	7.39445	0.44434	2674.85757
2219	4	3	11.5	599.81774	0.35478	0.03521	0.15957	34.11409	0.16097	1.73822	5719.21968	0.74362	6163328.0
2220	4	3	12.5	523.02167	0.36747	0.0307	0.17677	34.55552	0.16107	1.92556	6090.12556	0.74908	6667392.0
2221	4	3	13.5	521.546	0.20787	0.03061	0.01726	16.96094	0.16679	0.18797	7.16992	0.46017	3388.2297
2222	4	3	14.5	480.85837	0.20848	0.02823	0.02026	17.57978	0.17601	0.22067	7.73448	0.47238	4456.29795
2223	4	3	15.5	395.55076	0.20723	0.02322	0.02401	17.86547	0.1749	0.26159	8.74804	0.47798	5173.7476
2224	4	3	16.5	257.78887	0.19444	0.01513	0.01931	14.68134	0.01422	0.21034	10.64898	0.41465	4239.92935
2225	4	3	17.5	120.49583	0.17825	0.00707	0.01118	9.88637	0.00463	0.12178	10.22913	0.31833	2421.9606
2239	4	4	7.5	84.47531	0.16496	0.00496	0.0	0.0	0.0	0.0	7.35455	0.14352	544.86049
2240	4	4	8.5	202.35759	0.17188	0.01188	0.0	0.0	0.0	0.0	7.60169	0.14352	1285.17311
2241	4	4	9.5	335.31526	0.18463	0.01968	0.00494	9.93131	0.04355	0.05384	7.29626	0.31922	2060.99472
2242	4	4	10.5	425.67886	0.20142	0.02499	0.01643	16.08391	0.16011	0.179	7.27823	0.44275	2642.0199
2243	4	4	11.5	583.66386	0.35138	0.03426	0.15712	33.75553	0.16083	1.71158	5408.4506	0.7391	5670720.0
2244	4	4	12.5	515.72385	0.36806	0.03027	0.17778	34.59759	0.16098	1.93664	6176.98944	0.7496	6143745.28513
2245	4	4	13.5	513.49877	0.20747	0.03014	0.01733	16.94175	0.1677	0.18876	7.14115	0.45979	3321.1047
2246	4	4	14.5	475.83408	0.20816	0.02793	0.02023	17.53988	0.17564	0.22036	7.69381	0.47159	4307.05435
2247	4	4	15.5	387.25427	0.20576	0.02273	0.02302	17.58119	0.1745	0.2508	8.51512	0.4724	4929.07225
2248	4	4	16.5	251.17162	0.18991	0.01474	0.01516	13.50674	0.01376	0.16517	9.83201	0.39098	3793.879
2249	4	4	17.5	119.09648	0.17284	0.00699	0.00585	7.28236	0.00269	0.06369	9.73585	0.26765	2172.86972
2263	4	5	7.5	89.06663	0.16523	0.00523	0.0	0.0	0.0	0.0	7.56422	0.14352	581.21987
2264	4	5	8.5	209.07834	0.17227	0.01227	0.0	0.0	0.0	0.0	7.76449	0.14352	1342.95596
2265	4	5	9.5	336.66501	0.19128	0.01976	0.01152	13.54964	0.08518	0.12546	7.41733	0.39185	2081.92007
2266	4	5	10.5	425.93998	0.20163	0.025	0.01663	16.14503	0.1601	0.18117	7.34774	0.44397	2656.8981
2267	4	5	11.5	584.65723	0.35227	0.03432	0.15795	33.8507	0.16087	1.72056	5486.04576	0.74031	5601984.0
2268	4	5	12.5	512.71355	0.36111	0.0301	0.17101	33.97525	0.16101	1.86285	5356.60653	0.74188	6025856.0
2269	4	5	13.5	510.98391	0.20716	0.02999	0.01717	16.86593	0.16512	0.18701	7.16797	0.45829	3300.17935
2270	4	5	14.5	472.6349	0.20786	0.02774	0.02012	17.49388	0.17555	0.21917	7.7029	0.47069	4329.42935
2271	4	5	15.5	384.92252	0.20562	0.02259	0.02302	17.5674	0.17435	0.2508	8.57253	0.47213	4845.504
2272	4	5	16.5	254.76554	0.19266	0.01495	0.01771	14.24034	0.01356	0.19291	10.46056	0.40577	4038.55435
2273	4	5	17.5	120.75355	0.17578	0.00709	0.00869	8.86665	0.00359	0.09468	9.94248	0.29824	2384.7074
2274	4	5	18.5	27.15252	0.16159	0.00159	0.0	0.0	0.0	0.0	6.56295	0.14352	297.40427
2287	4	6	7.5	88.36174	0.16519	0.00519	0.0	0.0	0.0	0.0	7.43167	0.14352	573.01045
2288	4	6	8.5	198.42345	0.17165	0.01165	0.0	0.0	0.0	0.0	7.70441	0.14352	1285.89793
2289	4	6	9.5	308.26214	0.17809	0.01809	0.0	0.0	0.0	0.0	7.32687	0.14352	1924.50367
2290	4	6	10.5	390.9398	0.19933	0.02295	0.01638	15.81542	0.15973	0.17844	7.21373	0.43739	2442.81937
2291	4	6	11.5	500.67338	0.3256	0.02939	0.13621	31.20834	0.1604	1.48372	3256.28144	0.70523	3631552.0
2292	4	6	12.5	457.9998	0.33236	0.02688	0.14547	31.31137	0.1606	1.58466	3174.47829	0.70666	3769024.0
2293	4	6	13.5	453.31384	0.20356	0.02661	0.01695	16.45444	0.1658	0.18464	7.03192	0.45013	2873.47155
2294	4	6	14.5	415.25475	0.20344	0.02438	0.01907	16.82864	0.17357	0.2077	7.50032	0.45756	3364.2719
2295	4	6	15.5	341.86875	0.19428	0.02007	0.01421	14.34545	0.04681	0.15483	8.39876	0.40789	3716.34015
2296	4	6	16.5	224.54422	0.18141	0.01318	0.00822	10.57987	0.00826	0.0896	8.98976	0.33212	3089.70699
2297	4	6	17.5	118.10922	0.16811	0.00693	0.00118	1.41248	0.00051	0.01282	9.14471	0.16488	2026.7074
2311	4	7	7.5	92.10411	0.16541	0.00541	0.0	0.0	0.0	0.0	7.70216	0.14352	609.55103
2312	4	7	8.5	205.71299	0.17208	0.01208	0.0	0.0	0.0	0.0	7.88305	0.14352	1337.36221
2313	4	7	9.5	324.87427	0.1808	0.01907	0.00173	5.903	0.01875	0.01888	7.50558	0.24181	2038.61972
2314	4	7	10.5	414.06331	0.20129	0.02431	0.01699	16.16691	0.16014	0.18506	7.45549	0.44441	2628.59135
2315	4	7	11.5	569.14742	0.3424	0.03341	0.14899	32.88652	0.16091	1.62304	4393.95642	0.72791	4937536.0
2316	4	7	12.5	511.46297	0.36504	0.03002	0.17502	34.33303	0.16095	1.90649	5772.45216	0.74634	5878126.50259
2317	4	7	13.5	510.20823	0.20736	0.02995	0.01741	16.9292	0.16467	0.18965	7.28126	0.45955	3337.54795
2318	4	7	14.5	470.41281	0.20793	0.02761	0.02032	17.533	0.17517	0.22133	7.82405	0.47146	4262.30435
2319	4	7	15.5	383.08279	0.20571	0.02249	0.02322	17.60444	0.17401	0.25296	8.70603	0.47286	4815.7476
2320	4	7	16.5	251.58626	0.19052	0.01477	0.01575	13.66979	0.01303	0.17153	10.27628	0.39427	3898.3726
2321	4	7	17.5	124.05918	0.17753	0.00728	0.01025	9.61905	0.00444	0.11165	10.2796	0.31304	2407.80722
2322	4	7	18.5	29.26049	0.16172	0.00172	0.0	0.0	0.0	0.0	6.83329	0.14352	319.58972
2335	4	8	7.5	94.82383	0.16557	0.00557	0.0	0.0	0.0	0.0	7.77958	0.14352	631.92603
2336	4	8	8.5	210.48795	0.17236	0.01236	0.0	0.0	0.0	0.0	8.05951	0.14352	1389.0199
2337	4	8	9.5	338.74044	0.19647	0.01988	0.01659	15.44783	0.15676	0.18072	7.68915	0.43004	2160.9574
2338	4	8	10.5	425.82621	0.20232	0.025	0.01732	16.34698	0.16027	0.18869	7.63464	0.44799	2720.3324
2339	4	8	11.5	581.92071	0.3507	0.03416	0.15654	33.70742	0.16089	1.7052	5256.35932	0.73849	5487424.0
2340	4	8	12.5	512.83706	0.36734	0.0301	0.17723	34.54928	0.161	1.93066	6073.87617	0.74901	6068763.38145
2341	4	8	13.5	517.35777	0.20853	0.03037	0.01817	17.1985	0.1671	0.19788	7.55394	0.46487	3455.3547
2342	4	8	14.5	475.80482	0.20902	0.02793	0.02109	17.76717	0.17506	0.22979	8.16236	0.47605	4505.53005
2343	4	8	15.5	384.7363	0.20779	0.02258	0.0252	18.07034	0.17407	0.27456	9.41787	0.48199	5290.1047
2344	4	8	16.5	257.57743	0.19286	0.01512	0.01774	14.27252	0.01287	0.19328	10.87957	0.40642	4189.2476
2345	4	8	17.5	129.33429	0.17727	0.00759	0.00968	9.51484	0.00444	0.10543	10.23497	0.31098	2441.36972
2346	4	8	18.5	31.65947	0.16186	0.00186	0.0	0.0	0.0	0.0	6.88125	0.14352	344.24358
2359	4	9	7.5	100.6334	0.16591	0.00591	0.0	0.0	0.0	0.0	7.93516	0.14352	677.69541
2360	4	9	8.5	219.02642	0.17286	0.01286	0.0	0.0	0.0	0.0	8.24291	0.14352	1467.3324
2361	4	9	9.5	351.221	0.19764	0.02062	0.01703	15.68868	0.1592	0.18548	7.79191	0.43486	2262.36972
2362	4	9	10.5	441.11892	0.20356	0.02589	0.01767	16.55105	0.16037	0.19248	7.72477	0.45205	2846.7476
2363	4	9	11.5	593.44677	0.35681	0.03484	0.16197	34.33301	0.16102	1.76443	5954.78421	0.74634	6025856.0
2364	4	9	12.5	524.62513	0.37049	0.0308	0.17969	34.85286	0.16114	1.95743	6260.07777	0.75271	6387398.0978
2365	4	9	13.5	519.30195	0.20891	0.03048	0.01843	17.27384	0.16566	0.20072	7.71333	0.46635	3521.03005
2366	4	9	14.5	474.72657	0.20924	0.02787	0.02137	17.83229	0.17494	0.23282	8.29401	0.47733	4527.90505
2367	4	9	15.5	395.60358	0.20702	0.02322	0.0238	17.83914	0.17393	0.25927	8.92956	0.47746	5040.94725
2368	4	9	16.5	259.58759	0.18902	0.01524	0.01378	13.17742	0.01249	0.15013	10.1424	0.38434	3946.0219
2369	4	9	17.5	129.2095	0.17314	0.00758	0.00555	7.33468	0.00276	0.06049	9.52213	0.26865	2218.34455
2392	4	10	16.5	173.54351	0.17027	0.01019	8e-05	0.0	7e-05	0.0009	7.89605	0.14352	2236.10429
2393	4	10	17.5	106.97023	0.16628	0.00628	0.0	0.0	0.0	0.0	8.39976	0.14352	1365.06201
2407	4	11	7.5	76.27213	0.16448	0.00448	0.0	0.0	0.0	0.0	7.27554	0.14352	491.71987
2408	4	11	8.5	168.10369	0.16987	0.00987	0.0	0.0	0.0	0.0	7.59429	0.14352	1100.54607
2409	4	11	9.5	273.59452	0.17606	0.01606	0.0	0.0	0.0	0.0	7.31318	0.14352	1743.98745
2410	4	11	10.5	383.73091	0.19963	0.02253	0.01711	15.97509	0.15978	0.18633	7.42372	0.44058	2472.6246
2411	4	11	11.5	534.61929	0.32953	0.03138	0.13815	31.63685	0.16084	1.50491	3345.21875	0.71115	4043968.0
2412	4	11	12.5	516.08296	0.34905	0.03029	0.15876	32.91009	0.16121	1.7294	4125.24781	0.72822	5212480.0
2413	4	11	13.5	505.92475	0.20769	0.0297	0.018	17.0691	0.16427	0.19604	7.54362	0.46231	3367.30435
2414	4	11	14.5	455.31417	0.20696	0.02673	0.02024	17.42195	0.17441	0.22045	7.92747	0.46927	3946.0219
2415	4	11	15.5	367.73482	0.20444	0.02159	0.02285	17.40774	0.17297	0.2489	8.76581	0.46899	4259.2719
2416	4	11	16.5	246.15234	0.18343	0.01445	0.00898	11.21526	0.00909	0.09786	9.45427	0.34483	3292.53164
2417	4	11	17.5	126.37462	0.17691	0.00742	0.00949	9.36123	0.00419	0.10335	10.08095	0.30795	2460.05402
2418	4	11	18.5	36.33275	0.16213	0.00213	0.0	0.0	0.0	0.0	6.7515	0.14352	394.3895
2431	4	12	7.5	104.92181	0.16616	0.00616	0.0	0.0	0.0	0.0	8.25301	0.14352	722.44541
2432	4	12	8.5	220.89448	0.17297	0.01297	0.0	0.0	0.0	0.0	8.51731	0.14352	1512.0824
2433	4	12	9.5	343.99174	0.19826	0.02019	0.01807	15.92777	0.15941	0.19686	8.30417	0.43964	2286.26095
2434	4	12	10.5	425.5584	0.20376	0.02498	0.01878	16.75539	0.16036	0.20459	8.27867	0.4561	2851.2297
2435	4	12	11.5	582.85557	0.35324	0.03421	0.15903	33.9709	0.16098	1.73231	5515.19471	0.74182	5419888.51307
2436	4	12	12.5	509.40129	0.35695	0.0299	0.16705	33.63308	0.16114	1.81974	4833.5269	0.73755	5785280.0
2437	4	12	13.5	509.596	0.20854	0.02991	0.01863	17.28172	0.16685	0.20292	7.72116	0.46651	3432.9797
2438	4	12	14.5	466.59288	0.20843	0.02739	0.02105	17.69949	0.17441	0.22925	8.2144	0.47473	4307.05435
2439	4	12	15.5	379.55665	0.2072	0.02228	0.02492	17.97139	0.17326	0.27147	9.39936	0.48005	4933.55435
2440	4	12	16.5	252.44199	0.19008	0.01482	0.01527	13.52744	0.01179	0.16629	10.82853	0.3914	4122.1226
2441	4	12	17.5	129.63879	0.17864	0.00761	0.01103	10.04941	0.00438	0.1202	10.59156	0.32156	2686.7699
2442	4	12	18.5	37.28787	0.16219	0.00219	0.0	0.0	0.0	0.0	6.79014	0.14352	402.78013
2455	4	13	7.5	96.67507	0.16567	0.00567	0.0	0.0	0.0	0.0	7.92242	0.14352	653.37835
2456	4	13	8.5	212.46196	0.17247	0.01247	0.0	0.0	0.0	0.0	8.43522	0.14352	1456.86972
2457	4	13	9.5	342.72053	0.19803	0.02012	0.01791	15.87142	0.15932	0.19511	8.14901	0.43851	2273.55722
2458	4	13	10.5	426.69292	0.20343	0.02505	0.01839	16.6549	0.16037	0.2003	8.04218	0.45411	2830.30435
2459	4	13	11.5	572.49589	0.34677	0.03361	0.15316	33.34889	0.16105	1.66845	4779.54559	0.73391	5189568.0
2460	4	13	12.5	510.88363	0.35742	0.02999	0.16743	33.67373	0.16121	1.82386	4886.0567	0.73807	5670720.0
2461	4	13	13.5	513.54463	0.20878	0.03015	0.01864	17.29774	0.16547	0.203	7.79414	0.46683	3477.7297
2462	4	13	14.5	472.11826	0.20924	0.02771	0.02152	17.85345	0.1743	0.23444	8.37382	0.47774	4389.17295
2463	4	13	15.5	377.54339	0.20699	0.02216	0.02483	17.95036	0.1731	0.27044	9.56452	0.47964	5127.54795
2464	4	13	16.5	254.55375	0.19014	0.01494	0.01519	13.52852	0.01154	0.1655	10.90117	0.39142	4151.879
2465	4	13	17.5	133.19843	0.17672	0.00782	0.0089	9.26471	0.00415	0.09693	10.09074	0.30605	2505.52885
2466	4	13	18.5	37.43671	0.1622	0.0022	0.0	0.0	0.0	0.0	7.09987	0.14352	385.81767
2479	4	14	7.5	109.45912	0.16643	0.00643	0.0	0.0	0.0	0.0	8.63286	0.14352	778.0205
2480	4	14	8.5	222.16354	0.17304	0.01304	0.0	0.0	0.0	0.0	8.66362	0.14352	1546.36972
2481	4	14	9.5	344.47321	0.19847	0.02022	0.01824	15.98067	0.15943	0.19875	8.2669	0.44069	2307.11972
2482	4	14	10.5	436.46335	0.20439	0.02562	0.01877	16.82662	0.16051	0.20443	8.12917	0.45752	2936.2476
2483	4	14	11.5	587.11367	0.34095	0.03446	0.14648	32.74166	0.16118	1.5957	4055.35975	0.72601	5006272.0
2484	4	14	12.5	519.60028	0.36184	0.0305	0.17134	34.09605	0.1613	1.8664	5242.67731	0.74339	6117504.0
2485	4	14	13.5	520.0307	0.20988	0.03053	0.01935	17.54535	0.16815	0.21079	8.01055	0.4717	3567.2297
2486	4	14	14.5	470.16873	0.20974	0.0276	0.02215	17.99884	0.17415	0.24124	8.6587	0.48059	4484.6047
2487	4	14	15.5	388.66381	0.20667	0.02281	0.02385	17.81493	0.17291	0.25985	9.19845	0.47699	4929.07225
2488	4	14	16.5	253.37843	0.1883	0.01487	0.01342	12.97651	0.01135	0.14622	10.81739	0.38028	4233.9976
2489	4	14	17.5	133.70119	0.17411	0.00785	0.00626	7.89523	0.00282	0.06825	10.06401	0.27938	2587.53205
2490	4	14	18.5	38.87015	0.16228	0.00228	0.0	0.0	0.0	0.0	7.19072	0.14352	413.78642
2503	4	15	7.5	103.34014	0.16607	0.00607	0.0	0.0	0.0	0.0	8.13299	0.14352	711.25791
2504	4	15	8.5	169.95407	0.16998	0.00998	0.0	0.0	0.0	0.0	7.60184	0.14352	1129.60206
2533	4	16	13.5	289.27793	0.17698	0.01698	0.0	0.0	0.0	0.0	6.82646	0.14352	1801.30802
2534	4	16	14.5	289.14808	0.17791	0.01697	0.00094	3.33727	0.00181	0.01024	7.2581	0.19631	2355.40952
2535	4	16	15.5	251.51715	0.17591	0.01476	0.00115	3.61179	0.00157	0.01248	7.77169	0.201	2579.88434
2557	4	17	13.5	380.39027	0.1996	0.02233	0.01727	16.00443	0.16083	0.18818	7.40257	0.44117	2473.28284
2558	4	17	14.5	421.59738	0.20405	0.02475	0.0193	16.90752	0.16717	0.21024	8.01399	0.45912	3352.27524
2559	4	17	15.5	373.00795	0.20529	0.0219	0.02339	17.59544	0.1723	0.25483	9.16034	0.47268	4257.82225
2560	4	17	16.5	248.42866	0.18621	0.01458	0.01163	12.30422	0.01047	0.1267	10.64733	0.36673	3944.57225
2561	4	17	17.5	132.34957	0.17545	0.00777	0.00768	8.65897	0.0036	0.08365	10.19852	0.29419	2567.3981
2562	4	17	18.5	41.47703	0.16243	0.00243	0.0	0.0	0.0	0.0	7.31651	0.14352	387.69187
2578	4	18	10.5	309.67362	0.17925	0.01818	0.00107	4.01745	0.01342	0.01165	7.38247	0.208	2023.60837
2579	4	18	11.5	469.18886	0.30735	0.02754	0.11981	29.46812	0.16052	1.30508	2096.28107	0.68022	2789536.0
2580	4	18	12.5	483.15914	0.33119	0.02836	0.14283	31.30208	0.16107	1.55588	2888.26973	0.70653	3952320.0
2581	4	18	13.5	485.78082	0.20754	0.02852	0.01903	17.24076	0.16516	0.20727	7.92267	0.4657	3295.69725
2582	4	18	14.5	443.77162	0.20726	0.02605	0.02121	17.59428	0.17322	0.23102	8.38744	0.47266	3810.32225
2583	4	18	15.5	360.48705	0.20512	0.02116	0.02396	17.61897	0.17202	0.26098	9.35474	0.47315	4308.504
2584	4	18	16.5	243.78454	0.18382	0.01431	0.00951	11.41991	0.00998	0.10357	10.32705	0.34894	3698.44725
2585	4	18	17.5	132.67152	0.17463	0.00779	0.00684	8.21745	0.00332	0.07455	10.04384	0.28561	2597.99472
2586	4	18	18.5	43.00162	0.16252	0.00252	0.0	0.0	0.0	0.0	7.37233	0.14352	438.76045
2696	4	23	8.5	152.5531	0.16895	0.00895	0.0	0.0	0.0	0.0	7.68047	0.14352	1028.18973
2697	4	23	9.5	235.0581	0.1738	0.0138	0.0	0.0	0.0	0.0	7.61728	0.14352	1577.6246
2698	4	23	10.5	272.91656	0.17602	0.01602	0.0	0.0	0.0	0.0	7.22652	0.14352	1788.67087
2699	4	23	11.5	290.42781	0.19828	0.01705	0.02123	15.15381	0.00016	0.23124	96.95424	0.42414	335804.0
2801	4	27	17.5	104.77813	0.16615	0.00615	0.0	0.0	0.0	0.0	8.04387	0.14352	1159.80298
2818	4	28	10.5	330.7201	0.19804	0.01941	0.01863	15.96515	0.15919	0.20289	8.01865	0.44038	2272.69925
2819	4	28	11.5	485.45308	0.31065	0.0285	0.12216	29.86254	0.16091	1.33067	2164.17396	0.68602	2944192.0
2820	4	28	12.5	496.57894	0.33257	0.02915	0.14342	31.48946	0.16123	1.56231	2877.07757	0.70912	4066880.0
2821	4	28	13.5	490.78132	0.20979	0.02881	0.02098	17.79314	0.16662	0.2285	8.71366	0.47656	3523.92935
2822	4	28	14.5	443.4578	0.20894	0.02603	0.02291	18.01418	0.17212	0.24951	9.20434	0.48089	3987.8726
2823	4	28	15.5	355.51818	0.20653	0.02087	0.02566	17.98654	0.17064	0.27952	10.31324	0.48035	4345.8726
2824	4	28	16.5	250.19494	0.1855	0.01469	0.01081	12.0014	0.00829	0.11778	11.3311	0.36063	4010.2476
2825	4	28	17.5	143.84398	0.17123	0.00844	0.00279	5.10204	0.00136	0.03039	10.20541	0.22722	2713.56042
2826	4	28	18.5	54.06977	0.16317	0.00317	0.0	0.0	0.0	0.0	7.98286	0.14352	471.40027
2838	4	29	6.5	45.81162	0.16269	0.00269	0.0	0.0	0.0	0.0	7.76334	0.14352	312.69648
2839	4	29	7.5	120.59862	0.16708	0.00708	0.0	0.0	0.0	0.0	8.91423	0.14352	884.26846
2840	4	29	8.5	201.82296	0.17185	0.01185	0.0	0.0	0.0	0.0	8.47101	0.14352	1431.46227
2841	4	29	9.5	260.51581	0.17529	0.01529	0.0	0.0	0.0	0.0	8.26338	0.14352	1812.5621
2842	4	29	10.5	296.7877	0.17743	0.01742	1e-05	0.0	0.00016	0.00013	7.59083	0.14352	2010.17982
2843	4	29	11.5	304.73489	0.20119	0.01789	0.0233	15.7257	0.00018	0.25384	107.40983	0.4356	393800.0
2872	4	30	16.5	187.75677	0.17209	0.01102	0.00107	2.48384	0.00105	0.01166	8.81742	0.18206	2260.65377
2873	4	30	17.5	125.72276	0.16738	0.00738	0.0	0.0	0.0	0.0	8.96575	0.14352	1590.3949
2874	4	30	18.5	55.8965	0.16328	0.00328	0.0	0.0	0.0	0.0	7.84992	0.14352	533.65635
2910	5	2	6.5	55.92186	0.16328	0.00328	0.0	0.0	0.0	0.0	8.11202	0.14352	388.99361
2911	5	2	7.5	127.42065	0.16748	0.00748	0.0	0.0	0.0	0.0	9.70739	0.14352	984.59355
2912	5	2	8.5	191.47736	0.17124	0.01124	0.0	0.0	0.0	0.0	8.8624	0.14352	1400.14082
2914	5	2	10.5	278.29343	0.17634	0.01634	0.0	0.0	0.0	0.0	7.60698	0.14352	1887.11732
2915	5	2	11.5	369.72347	0.25336	0.0217	0.07166	23.89963	0.15991	0.78057	541.46842	0.59028	1085456.0
2916	5	2	12.5	407.49385	0.27344	0.02392	0.08952	25.84015	0.16065	0.97518	804.0975	0.62329	1598112.0
2917	5	2	13.5	398.23468	0.20266	0.02338	0.01928	16.70047	0.161	0.21006	8.17253	0.45501	2751.18269
2918	5	2	14.5	361.28614	0.20206	0.02121	0.02085	16.86927	0.16757	0.22717	8.63735	0.45836	2971.90024
2919	5	2	15.5	298.45582	0.19034	0.01752	0.01282	13.55982	0.06552	0.13965	9.03522	0.39205	3153.79954
2920	5	2	16.5	196.91049	0.17194	0.01156	0.00039	0.0	0.00039	0.0042	8.76841	0.14352	2312.17574
2934	5	3	6.5	57.23789	0.16336	0.00336	0.0	0.0	0.0	0.0	8.29477	0.14352	405.59365
2935	5	3	7.5	140.18838	0.16823	0.00823	0.0	0.0	0.0	0.0	10.43564	0.14352	1129.66864
2936	5	3	8.5	245.59565	0.17442	0.01442	0.0	0.0	0.0	0.0	10.64596	0.14352	1962.54827
2937	5	3	9.5	346.93781	0.20328	0.02037	0.02292	17.21749	0.16016	0.24965	10.20114	0.46524	2674.85757
2938	5	3	10.5	417.21554	0.20668	0.02449	0.02219	17.58197	0.16073	0.24169	9.57666	0.47242	3115.2476
2939	5	3	11.5	481.93768	0.2987	0.02829	0.11041	28.7135	0.16102	1.20277	1581.13673	0.66891	2560416.0
2940	5	3	12.5	405.22947	0.28374	0.02379	0.09995	26.83887	0.1606	1.08883	1056.69356	0.6396	1732861.84724
2941	5	3	13.5	442.75651	0.20671	0.02599	0.02072	17.41336	0.16465	0.22571	8.62565	0.4691	3158.41479
2942	5	3	14.5	425.89773	0.20809	0.025	0.02309	17.93602	0.17109	0.25155	9.28688	0.47936	3383.7476
2943	5	3	15.5	357.34288	0.20658	0.02098	0.02561	17.9959	0.16999	0.27894	10.38329	0.48053	4032.6226
2944	5	3	16.5	251.7574	0.18192	0.01478	0.00714	10.34268	0.00576	0.07777	11.11932	0.32739	3878.8969
2945	5	3	17.5	146.5989	0.16861	0.00861	0.0	0.0	0.0	0.0	10.08696	0.14352	1459.11077
2946	5	3	18.5	59.16155	0.16347	0.00347	0.0	0.0	0.0	0.0	8.21427	0.14352	546.71805
2993	5	5	17.5	110.35091	0.16648	0.00648	0.0	0.0	0.0	0.0	8.34557	0.14352	1166.87967
3011	5	6	11.5	287.64	0.17688	0.01688	0.0	0.0	0.0	0.0	7.35746	0.14352	1921.40464
3012	5	6	12.5	346.31232	0.21847	0.02033	0.03814	19.54573	0.15982	0.41548	129.2302	0.5105	793328.0
3013	5	6	13.5	290.25081	0.17704	0.01704	0.0	0.0	0.0	0.0	7.58939	0.14352	1932.59214
3030	5	7	6.5	50.8296	0.16298	0.00298	0.0	0.0	0.0	0.0	7.86091	0.14352	349.47494
3031	5	7	7.5	125.46988	0.16737	0.00737	0.0	0.0	0.0	0.0	9.37067	0.14352	951.39346
3032	5	7	8.5	222.1884	0.17304	0.01304	0.0	0.0	0.0	0.0	9.4401	0.14352	1680.55315
3033	5	7	9.5	315.54598	0.19944	0.01852	0.02092	16.43726	0.15951	0.22785	9.17119	0.44979	2335.40872
3034	5	7	10.5	376.56477	0.20306	0.0221	0.02095	16.96787	0.16017	0.22823	8.91872	0.46031	2755.66479
3035	5	7	11.5	405.50726	0.20411	0.0238	0.0203	17.0198	0.16044	0.22118	8.32575	0.46134	2894.26374
3036	5	7	12.5	408.55277	0.20371	0.02398	0.01972	16.88874	0.1604	0.21485	8.07588	0.45875	2865.95699
3037	5	7	13.5	428.78687	0.20572	0.02517	0.02055	17.26905	0.16355	0.2239	8.53134	0.46626	3021.13234
3038	5	7	14.5	408.30415	0.20645	0.02397	0.02249	17.65103	0.16918	0.24495	9.12612	0.47377	3262.77524
3039	5	7	15.5	344.88626	0.20574	0.02024	0.0255	17.86446	0.16927	0.27776	10.40915	0.47796	3632.7719
3040	5	7	16.5	250.24093	0.18297	0.01469	0.00828	10.91113	0.0065	0.09019	11.55952	0.33874	3905.754
3041	5	7	17.5	157.30383	0.16923	0.00923	0.0	0.0	0.0	0.0	10.08115	0.14352	1388.16184
3042	5	7	18.5	67.65136	0.16397	0.00397	0.0	0.0	0.0	0.0	8.24388	0.14352	613.6452
3054	5	8	6.5	63.23481	0.16371	0.00371	0.0	0.0	0.0	0.0	8.89586	0.14352	466.38343
3055	5	8	7.5	150.98563	0.16886	0.00886	0.0	0.0	0.0	0.0	10.32722	0.14352	1212.81677
3056	5	8	8.5	249.74057	0.17726	0.01466	0.0026	6.57033	0.01772	0.02832	10.76799	0.25421	2027.43222
3057	5	8	9.5	351.39077	0.20392	0.02063	0.02329	17.34587	0.16025	0.25374	10.24708	0.46777	2743.43222
3058	5	8	10.5	420.29769	0.20812	0.02467	0.02344	17.90884	0.16082	0.25538	10.12456	0.47883	3248.04795
3059	5	8	11.5	464.5679	0.20996	0.02727	0.02269	18.02061	0.16094	0.24715	9.41987	0.48101	3495.6226
3060	5	8	12.5	471.33153	0.20951	0.02767	0.02184	17.85555	0.161	0.23795	8.92682	0.47779	3499.97155
3061	5	8	13.5	426.75503	0.20597	0.02505	0.02092	17.34049	0.16233	0.22786	8.79711	0.46767	3070.36444
3062	5	8	14.5	323.16918	0.19859	0.01897	0.01962	16.18073	0.16155	0.21369	8.64143	0.44468	2643.65664
3085	5	9	13.5	291.60974	0.17712	0.01712	0.0	0.0	0.0	0.0	7.6781	0.14352	1947.47034
3086	5	9	14.5	284.67942	0.17678	0.01671	7e-05	0.0	0.00015	0.00079	8.04788	0.14352	2094.35749
3087	5	9	15.5	255.038	0.17562	0.01497	0.00065	1.66544	0.00094	0.00711	8.46466	0.16886	2520.98097
3088	5	9	16.5	213.60616	0.17515	0.01254	0.00261	6.07639	0.00336	0.02842	9.56176	0.24501	2345.73824
3089	5	9	17.5	147.23213	0.16864	0.00864	0.0	0.0	0.0	0.0	9.43905	0.14352	1429.22122
3090	5	9	18.5	66.13705	0.16388	0.00388	0.0	0.0	0.0	0.0	8.33233	0.14352	598.52805
3102	5	10	6.5	65.55991	0.16385	0.00385	0.0	0.0	0.0	0.0	8.66251	0.14352	478.11455
3103	5	10	7.5	148.36206	0.16871	0.00871	0.0	0.0	0.0	0.0	10.56197	0.14352	1208.34355
3104	5	10	8.5	245.92885	0.17561	0.01444	0.00117	3.63657	0.0103	0.01276	10.93642	0.20142	2016.24472
3105	5	10	9.5	343.67365	0.20371	0.02017	0.02353	17.3385	0.16021	0.25636	10.37321	0.46763	2698.68222
3106	5	10	10.5	419.49152	0.20774	0.02462	0.02312	17.82505	0.16075	0.25185	9.94714	0.47719	3210.67935
3107	5	10	11.5	465.2428	0.21054	0.02731	0.02323	18.15547	0.16098	0.25304	9.6612	0.48365	3562.7476
3108	5	10	12.5	487.56173	0.21145	0.02862	0.02283	18.19631	0.16104	0.24868	9.41114	0.48444	3741.7476
3109	5	10	13.5	482.08011	0.21105	0.0283	0.02275	18.1701	0.16458	0.24788	9.54341	0.48393	3652.2476
3110	5	10	14.5	430.40967	0.21051	0.02527	0.02525	18.47761	0.17075	0.27503	10.25001	0.48992	3792.42935
3111	5	10	15.5	346.03433	0.20783	0.02031	0.02752	18.33002	0.16924	0.29976	11.31	0.48705	3993.80435
3112	5	10	16.5	255.92099	0.19332	0.01502	0.0183	14.69096	0.06877	0.1993	11.95529	0.41484	4107.129
3113	5	10	17.5	160.14614	0.1694	0.0094	0.0	0.0	0.0	0.0	10.25313	0.14352	1365.06201
3114	5	10	18.5	71.08437	0.16417	0.00417	0.0	0.0	0.0	0.0	8.43722	0.14352	625.57417
3126	5	11	6.5	68.89907	0.16404	0.00404	0.0	0.0	0.0	0.0	8.74245	0.14352	506.2645
3127	5	11	7.5	149.93865	0.1688	0.0088	0.0	0.0	0.0	0.0	10.85368	0.14352	1241.90605
3128	5	11	8.5	249.78288	0.19207	0.01466	0.01741	14.5248	0.07867	0.18963	11.14722	0.4115	2063.9606
3129	5	11	9.5	345.19067	0.2044	0.02026	0.02413	17.49422	0.16025	0.26291	10.68506	0.47069	2753.8949
3130	5	11	10.5	422.93315	0.2086	0.02483	0.02377	18.00591	0.16087	0.25897	10.2478	0.48073	3298.7297
3131	5	11	11.5	470.85303	0.21143	0.02764	0.02379	18.32395	0.16104	0.25913	9.9393	0.48693	3650.79795
3132	5	11	12.5	495.97945	0.21238	0.02911	0.02327	18.35387	0.16127	0.25349	9.61776	0.48751	3852.17295
3133	5	11	13.5	491.08041	0.21189	0.02883	0.02306	18.29358	0.16392	0.25122	9.71019	0.48634	3747.67935
3134	5	11	14.5	435.49642	0.21112	0.02556	0.02555	18.58342	0.17072	0.27838	10.44321	0.49197	3925.2297
3135	5	11	15.5	347.5537	0.20897	0.0204	0.02857	18.57027	0.16919	0.31123	11.72333	0.49172	4148.9797
3136	5	11	16.5	256.715	0.19885	0.01507	0.02378	16.29507	0.11451	0.25906	11.99225	0.44696	4150.42935
3137	5	11	17.5	161.13655	0.16946	0.00946	0.0	0.0	0.0	0.0	10.37413	0.14352	1364.33727
3138	5	11	18.5	72.03415	0.16423	0.00423	0.0	0.0	0.0	0.0	8.47295	0.14352	625.75533
3150	5	12	6.5	70.05987	0.16411	0.00411	0.0	0.0	0.0	0.0	8.8237	0.14352	519.3262
3151	5	12	7.5	150.81646	0.16885	0.00885	0.0	0.0	0.0	0.0	10.8691	0.14352	1247.4998
3152	5	12	8.5	250.79914	0.19379	0.01472	0.01907	15.04512	0.09106	0.20775	11.14472	0.42196	2071.4574
3153	5	12	9.5	345.19068	0.20448	0.02026	0.02422	17.51343	0.16025	0.26379	10.7138	0.47107	2764.35757
3154	5	12	10.5	420.09705	0.20851	0.02466	0.02385	18.00372	0.16087	0.25978	10.31702	0.48068	3276.3547
3155	5	12	11.5	463.5971	0.21088	0.02721	0.02366	18.24905	0.16105	0.25777	9.87275	0.48547	3585.1226
3156	5	12	12.5	482.69609	0.21134	0.02833	0.02301	18.20983	0.16105	0.25061	9.48807	0.48471	3719.3726
3157	5	12	13.5	476.42354	0.21092	0.02797	0.02296	18.17729	0.16347	0.25009	9.67064	0.48407	3635.80435
3158	5	12	14.5	426.11216	0.21031	0.02501	0.0253	18.46008	0.17053	0.2756	10.35173	0.48958	3746.2297
3159	5	12	15.5	345.5343	0.20811	0.02028	0.02783	18.39149	0.16899	0.30315	11.42391	0.48824	3993.80435
3160	5	12	16.5	256.30651	0.19649	0.01505	0.02144	15.61492	0.09147	0.23356	12.01572	0.43338	4101.19725
3161	5	12	17.5	161.3326	0.16947	0.00947	0.0	0.0	0.0	0.0	10.30809	0.14352	1302.67918
3162	5	12	18.5	73.14664	0.16429	0.00429	0.0	0.0	0.0	0.0	8.53195	0.14352	637.12404
3174	5	13	6.5	71.14253	0.16418	0.00418	0.0	0.0	0.0	0.0	8.79438	0.14352	525.10116
3175	5	13	7.5	152.05129	0.16893	0.00893	0.0	0.0	0.0	0.0	10.90649	0.14352	1264.28105
3176	5	13	8.5	251.33209	0.19546	0.01475	0.02071	15.53515	0.10436	0.22561	11.1988	0.43179	2085.61077
3177	5	13	9.5	345.31584	0.20477	0.02027	0.0245	17.58213	0.1603	0.26692	10.84096	0.47242	2779.23577
3178	5	13	10.5	420.25931	0.20894	0.02467	0.02427	18.10511	0.16093	0.2644	10.51019	0.48266	3321.1047
3179	5	13	11.5	470.00366	0.2116	0.02759	0.02402	18.37251	0.1611	0.2616	10.02104	0.48787	3658.17935
3180	5	13	12.5	492.3362	0.21241	0.0289	0.02351	18.38863	0.16123	0.25607	9.72077	0.48819	3837.17935
3181	5	13	13.5	485.70917	0.21193	0.02851	0.02342	18.34657	0.1639	0.25508	9.85915	0.48737	3746.2297
3182	5	13	14.5	431.59613	0.21148	0.02533	0.02614	18.69022	0.17064	0.28477	10.62996	0.49404	3880.4797
3183	5	13	15.5	346.71474	0.20879	0.02035	0.02844	18.53752	0.16902	0.30979	11.72183	0.49108	4126.6047
3184	5	13	16.5	257.47395	0.20048	0.01511	0.02537	16.73171	0.12604	0.27634	12.05913	0.45563	4144.4976
3185	5	13	17.5	163.44682	0.16959	0.00959	0.0	0.0	0.0	0.0	10.43595	0.14352	1365.06201
3186	5	13	18.5	71.46453	0.16419	0.00419	0.0	0.0	0.0	0.0	8.63319	0.14352	600.58346
3198	5	14	6.5	71.65947	0.16421	0.00421	0.0	0.0	0.0	0.0	8.87757	0.14352	531.61759
3199	5	14	7.5	153.29172	0.169	0.009	0.0	0.0	0.0	0.0	10.8782	0.14352	1269.8748
3200	5	14	8.5	250.88798	0.19574	0.01473	0.02102	15.61492	0.10706	0.22893	11.21985	0.43338	2086.3356
3201	5	14	9.5	343.63253	0.20483	0.02017	0.02466	17.60338	0.16032	0.26858	10.8869	0.47284	2779.23577
3202	5	14	10.5	419.78985	0.20889	0.02464	0.02425	18.09683	0.16093	0.26417	10.49404	0.4825	3321.1047
3203	5	14	11.5	469.28601	0.21152	0.02755	0.02398	18.35927	0.16108	0.2612	10.01104	0.48762	3658.17935
3204	5	14	12.5	491.61291	0.2124	0.02886	0.02355	18.39384	0.16123	0.2565	9.73364	0.48829	3835.7297
3205	5	14	13.5	484.57584	0.21191	0.02844	0.02346	18.35227	0.16414	0.25558	9.87607	0.48748	3746.2297
3206	5	14	14.5	430.87527	0.21115	0.02529	0.02586	18.62025	0.17047	0.28168	10.57367	0.49268	3790.9797
3207	5	14	15.5	347.2012	0.20883	0.02038	0.02845	18.53984	0.16892	0.30986	11.66522	0.49113	4083.30435
3208	5	14	16.5	256.23632	0.19982	0.01504	0.02478	16.57924	0.12474	0.2699	11.98402	0.45261	4099.7476
3209	5	14	17.5	158.34308	0.16929	0.00929	0.0	0.0	0.0	0.0	10.75396	0.14352	1303.07489
3210	5	14	18.5	72.53014	0.16426	0.00426	0.0	0.0	0.0	0.0	8.66566	0.14352	605.99604
3222	5	15	6.5	73.00025	0.16429	0.00429	0.0	0.0	0.0	0.0	8.92712	0.14352	544.86049
3223	5	15	7.5	154.11758	0.16905	0.00905	0.0	0.0	0.0	0.0	10.95716	0.14352	1284.8107
3224	5	15	8.5	251.11819	0.1974	0.01474	0.02266	16.08194	0.12316	0.24679	11.35093	0.44271	2105.0199
3225	5	15	9.5	344.03434	0.20505	0.02019	0.02486	17.6538	0.16034	0.27077	10.97107	0.47383	2800.54795
3226	5	15	10.5	417.95747	0.20898	0.02453	0.02444	18.1291	0.1609	0.26628	10.56255	0.48313	3321.1047
3227	5	15	11.5	461.34608	0.21069	0.02708	0.02361	18.22111	0.16101	0.25715	9.84946	0.48493	3562.7476
3228	5	15	12.5	462.9741	0.20992	0.02718	0.02274	18.02341	0.16098	0.24773	9.35033	0.48107	3520.8969
3229	5	15	13.5	455.4341	0.20938	0.02673	0.02265	17.95724	0.16166	0.2467	9.54482	0.47977	3453.7719
3230	5	15	14.5	410.3354	0.20859	0.02409	0.0245	18.15642	0.16958	0.26692	10.07069	0.48367	3271.8726
3231	5	15	15.5	337.34385	0.20606	0.0198	0.02626	17.97245	0.1685	0.28602	10.83798	0.48007	3610.3969
3232	5	15	16.5	250.14316	0.17993	0.01468	0.00525	9.15297	0.00972	0.05719	11.05422	0.30386	3386.6469
3233	5	15	17.5	157.67269	0.16926	0.00926	0.0	0.0	0.0	0.0	10.5775	0.14352	1288.82165
3234	5	15	18.5	73.27684	0.1643	0.0043	0.0	0.0	0.0	0.0	8.66702	0.14352	613.46399
3247	5	16	7.5	111.78179	0.16656	0.00656	0.0	0.0	0.0	0.0	8.66968	0.14352	816.02293
3248	5	16	8.5	181.07432	0.17063	0.01063	0.0	0.0	0.0	0.0	8.68724	0.14352	1319.58727
3249	5	16	9.5	246.28163	0.17446	0.01446	0.0	0.0	0.0	0.0	8.58603	0.14352	1768.53692
3272	5	17	8.5	168.44266	0.16989	0.00989	0.0	0.0	0.0	0.0	8.516	0.14352	1212.7502
3273	5	17	9.5	245.72734	0.17442	0.01442	0.0	0.0	0.0	0.0	8.43669	0.14352	1755.10837
3274	5	17	10.5	298.56557	0.18911	0.01753	0.01158	13.14357	0.07073	0.12617	8.1507	0.38365	2101.85429
3275	5	17	11.5	334.53716	0.19868	0.01964	0.01905	16.11508	0.15943	0.20748	7.96524	0.44337	2353.95987
3276	5	17	12.5	347.55258	0.19942	0.0204	0.01902	16.22254	0.15977	0.20722	7.97363	0.44551	2435.96307
3277	5	17	13.5	338.90841	0.19889	0.01989	0.01899	16.14436	0.16039	0.20689	8.15556	0.44396	2356.92574
3278	5	17	14.5	304.52539	0.19081	0.01788	0.01293	13.72608	0.07957	0.14088	8.41904	0.3954	2387.52237
3279	5	17	15.5	251.50365	0.17631	0.01476	0.00155	4.68518	0.0021	0.01686	9.04236	0.21975	2500.12219
3280	5	17	16.5	196.43834	0.17153	0.01153	0.0	0.0	0.0	0.0	8.96073	0.14352	1787.15464
3281	5	17	17.5	131.36068	0.16771	0.00771	0.0	0.0	0.0	0.0	8.77228	0.14352	1286.74951
3282	5	17	18.5	63.56894	0.16373	0.00373	0.0	0.0	0.0	0.0	7.83965	0.14352	583.43984
3294	5	18	6.5	65.52285	0.16385	0.00385	0.0	0.0	0.0	0.0	8.85338	0.14352	486.68638
3295	5	18	7.5	144.59049	0.16849	0.00849	0.0	0.0	0.0	0.0	10.18473	0.14352	1156.87927
3296	5	18	8.5	235.23338	0.17381	0.01381	0.0	0.0	0.0	0.0	10.77175	0.14352	1928.19437
3297	5	18	9.5	326.38942	0.20293	0.01916	0.02377	17.24271	0.16005	0.25892	10.38293	0.46574	2597.20332
3298	5	18	10.5	386.99462	0.20533	0.02272	0.02261	17.46505	0.16048	0.24635	9.57559	0.47012	2957.03979
3299	5	18	11.5	411.73836	0.20597	0.02417	0.0218	17.4457	0.16066	0.23744	8.99326	0.46974	3070.36444
3300	5	18	12.5	397.4703	0.20423	0.02333	0.0209	17.11576	0.1605	0.2277	8.62943	0.46323	2894.26374
3301	5	18	13.5	355.75166	0.2009	0.02088	0.02002	16.56791	0.16142	0.21806	8.49897	0.45238	2527.70412
3302	5	18	14.5	280.17028	0.17645	0.01645	0.0	0.0	0.0	0.0	8.49335	0.14352	1976.61732
3321	5	19	9.5	247.61539	0.17454	0.01454	0.0	0.0	0.0	0.0	8.59379	0.14352	1787.94604
3322	5	19	10.5	350.93458	0.20237	0.0206	0.02177	16.96863	0.16011	0.23717	9.27191	0.46033	2638.92087
3323	5	19	11.5	435.89133	0.2084	0.02559	0.02281	17.86384	0.16089	0.2485	9.38245	0.47795	3316.48944
3324	5	19	12.5	477.36032	0.21148	0.02802	0.02346	18.28733	0.16117	0.25558	9.65641	0.48622	3692.5155
3325	5	19	13.5	469.26505	0.21116	0.02755	0.02361	18.3001	0.16487	0.25721	9.89152	0.48647	3607.4976
3326	5	19	14.5	418.49059	0.21012	0.02457	0.02555	18.46078	0.16983	0.27834	10.52606	0.48959	3471.79795
3327	5	19	15.5	346.35042	0.20777	0.02033	0.02744	18.31216	0.16833	0.2989	11.31588	0.4867	3810.32225
3328	5	19	16.5	246.66097	0.17937	0.01448	0.00489	8.83627	0.00492	0.0533	10.95148	0.29765	3162.8969
3329	5	19	17.5	137.90119	0.16809	0.00809	0.0	0.0	0.0	0.0	9.55004	0.14352	1234.36708
3342	5	20	6.5	73.15845	0.16429	0.00429	0.0	0.0	0.0	0.0	8.94684	0.14352	544.86049
3343	5	20	7.5	140.79511	0.16826	0.00826	0.0	0.0	0.0	0.0	9.72423	0.14352	1100.54607
3344	5	20	8.5	192.96332	0.17133	0.01133	0.0	0.0	0.0	0.0	9.14173	0.14352	1445.61565
3367	5	21	7.5	123.32094	0.16724	0.00724	0.0	0.0	0.0	0.0	9.06341	0.14352	922.6666
3368	5	21	8.5	222.17266	0.17304	0.01304	0.0	0.0	0.0	0.0	10.07993	0.14352	1758.14082
3369	5	21	9.5	328.16169	0.20306	0.01926	0.0238	17.26633	0.16005	0.25927	10.37538	0.46621	2617.33727
3370	5	21	10.5	389.70668	0.20618	0.02288	0.02331	17.65362	0.16065	0.25387	9.90091	0.47383	3030.09655
3371	5	21	11.5	427.54989	0.20786	0.0251	0.02276	17.79487	0.16092	0.24793	9.38413	0.4766	3249.36444
3372	5	21	12.5	435.24139	0.2077	0.02555	0.02215	17.69658	0.1608	0.24128	9.07109	0.47467	3267.25734
3373	5	21	13.5	436.22234	0.20802	0.02561	0.02241	17.77663	0.16215	0.24411	9.37762	0.47624	3271.73944
3374	5	21	14.5	398.14598	0.20843	0.02337	0.02506	18.19645	0.16918	0.27299	10.25438	0.48445	3073.3969
3375	5	21	15.5	334.64577	0.20579	0.01964	0.02614	17.90865	0.1663	0.28477	11.00595	0.47882	3474.69725
3376	5	21	16.5	252.09792	0.1958	0.0148	0.021	15.52614	0.10065	0.22876	11.80086	0.43161	3717.92295
3377	5	21	17.5	161.31689	0.16947	0.00947	0.0	0.0	0.0	0.0	10.95346	0.14352	1348.1873
3378	5	21	18.5	78.25674	0.16459	0.00459	0.0	0.0	0.0	0.0	9.02656	0.14352	627.62957
3445	5	24	13.5	349.94064	0.20124	0.02054	0.0207	16.68814	0.16022	0.22546	8.84487	0.45477	2559.81697
3446	5	24	14.5	373.4016	0.20589	0.02192	0.02397	17.74238	0.16777	0.26112	9.93127	0.47557	2894.26374
3447	5	24	15.5	337.22994	0.20652	0.0198	0.02672	18.06928	0.16751	0.29107	11.04546	0.48196	3429.94725
3448	5	24	16.5	248.22177	0.18308	0.01457	0.00851	11.08277	0.03316	0.09268	11.49761	0.34218	3429.94725
3449	5	24	17.5	161.99481	0.16951	0.00951	0.0	0.0	0.0	0.0	10.59138	0.14352	1336.24168
3450	5	24	18.5	78.05043	0.16458	0.00458	0.0	0.0	0.0	0.0	8.93556	0.14352	648.96851
3462	5	25	6.5	80.68598	0.16474	0.00474	0.0	0.0	0.0	0.0	9.2875	0.14352	617.20019
3463	5	25	7.5	160.34986	0.16941	0.00941	0.0	0.0	0.0	0.0	11.27803	0.14352	1358.42327
3464	5	25	8.5	253.55179	0.20072	0.01488	0.02584	16.98083	0.15845	0.28145	11.6521	0.46057	2172.1449
3465	5	25	9.5	341.4924	0.2058	0.02005	0.02576	17.83884	0.16033	0.28056	11.32227	0.47746	2852.67935
3466	5	25	10.5	413.98939	0.20972	0.0243	0.02542	18.32735	0.16102	0.27689	10.97536	0.487	3382.29795
3467	5	25	11.5	463.11608	0.21231	0.02718	0.02512	18.58759	0.1612	0.27367	10.52562	0.49205	3725.30435
3468	5	25	12.5	482.81936	0.21311	0.02834	0.02477	18.6276	0.16129	0.26979	10.28234	0.49283	3859.55435
3469	5	25	13.5	475.58587	0.213	0.02792	0.02508	18.70421	0.16772	0.2732	10.42532	0.49431	3770.05435
3470	5	25	14.5	424.01692	0.2119	0.02489	0.02701	18.8308	0.16971	0.29428	11.11826	0.49676	3427.04795
3471	5	25	15.5	344.54331	0.20917	0.02022	0.02895	18.62607	0.16788	0.31531	12.05651	0.4928	3949.05435
3472	5	25	16.5	261.79003	0.20394	0.01537	0.02857	17.68441	0.16337	0.31122	12.26915	0.47443	4032.6226
3473	5	25	17.5	166.81468	0.16979	0.00979	0.0	0.0	0.0	0.0	11.11032	0.14352	1403.17327
3474	5	25	18.5	81.92755	0.16481	0.00481	0.0	0.0	0.0	0.0	9.16013	0.14352	638.0756
3486	5	26	6.5	81.22004	0.16477	0.00477	0.0	0.0	0.0	0.0	9.35403	0.14352	625.59081
3487	5	26	7.5	160.79882	0.16944	0.00944	0.0	0.0	0.0	0.0	11.28559	0.14352	1366.6449
3488	5	26	8.5	253.55252	0.20088	0.01488	0.026	17.01801	0.15884	0.28321	11.69491	0.4613	2180.36652
3489	5	26	9.5	340.25139	0.20587	0.01997	0.0259	17.86017	0.16035	0.28208	11.37788	0.47788	2852.67935
3490	5	26	10.5	410.68603	0.20973	0.02411	0.02563	18.35083	0.16097	0.27915	11.05717	0.48745	3367.30435
3491	5	26	11.5	456.76715	0.21213	0.02681	0.02532	18.59071	0.16109	0.27577	10.62729	0.49211	3696.9976
3492	5	26	12.5	476.33901	0.21287	0.02796	0.02491	18.6218	0.16132	0.27137	10.35839	0.49271	3829.79795
3493	5	26	13.5	466.74367	0.21224	0.0274	0.02484	18.55022	0.16177	0.27063	10.53895	0.49133	3747.67935
3494	5	26	14.5	419.41198	0.2118	0.02462	0.02718	18.83462	0.16958	0.29604	11.20254	0.49683	3427.04795
3495	5	26	15.5	345.61129	0.20943	0.02029	0.02914	18.67533	0.16805	0.31742	12.07422	0.49375	3965.4976
3496	5	26	16.5	261.85498	0.20378	0.01537	0.02841	17.65244	0.16333	0.30942	12.20654	0.4738	3995.254
3497	5	26	17.5	167.70835	0.16984	0.00984	0.0	0.0	0.0	0.0	11.09288	0.14352	1411.3949
3498	5	26	18.5	82.53686	0.16484	0.00484	0.0	0.0	0.0	0.0	9.17219	0.14352	648.96851
3510	5	27	6.5	77.07429	0.16452	0.00452	0.0	0.0	0.0	0.0	9.54173	0.14352	598.74259
3511	5	27	7.5	158.54681	0.16931	0.00931	0.0	0.0	0.0	0.0	10.96555	0.14352	1325.4166
3512	5	27	8.5	238.10546	0.17398	0.01398	0.0	0.0	0.0	0.0	11.01686	0.14352	1981.166
3513	5	27	9.5	308.32935	0.20185	0.0181	0.02375	17.07063	0.15983	0.25871	10.38686	0.46234	2463.67815
3514	5	27	10.5	353.91492	0.20279	0.02077	0.02201	17.05269	0.16012	0.23977	9.34026	0.46199	2689.98944
3515	5	27	11.5	364.25889	0.20236	0.02138	0.02098	16.87836	0.16018	0.22856	8.72195	0.45854	2686.95699
3516	5	27	12.5	335.51307	0.19993	0.01969	0.02024	16.44218	0.15974	0.22043	8.46828	0.44989	2434.51342
3517	5	27	13.5	311.9131	0.19595	0.01831	0.01764	15.45025	0.13108	0.19216	8.30171	0.43009	2202.54179
3563	5	29	11.5	281.1088	0.1765	0.0165	0.0	0.0	0.0	0.0	8.02129	0.14352	1978.06697
3564	5	29	12.5	336.14324	0.19984	0.01973	0.02011	16.41517	0.15974	0.21908	8.44291	0.44935	2427.01662
3565	5	29	13.5	408.98273	0.20663	0.02401	0.02263	17.63904	0.16183	0.24646	9.51362	0.47354	3109.18269
3566	5	29	14.5	406.53471	0.20924	0.02386	0.02538	18.31779	0.16746	0.27643	10.53526	0.48681	3224.09015
3567	5	29	15.5	348.7507	0.20846	0.02047	0.02799	18.45257	0.16753	0.3049	11.692	0.48943	3838.629
3568	5	29	16.5	251.46048	0.18745	0.01476	0.01269	12.91228	0.05301	0.13821	11.29853	0.37899	3250.94725
3569	5	29	17.5	140.06951	0.16822	0.00822	0.0	0.0	0.0	0.0	9.56574	0.14352	1151.58136
3607	5	31	7.5	125.7035	0.16738	0.00738	0.0	0.0	0.0	0.0	9.29814	0.14352	960.33991
3608	5	31	8.5	206.00156	0.17209	0.01209	0.0	0.0	0.0	0.0	9.45019	0.14352	1577.6246
3609	5	31	9.5	284.66815	0.19789	0.01671	0.02118	16.1686	0.144	0.23073	9.59636	0.44444	2190.69604
3610	5	31	10.5	312.24275	0.19883	0.01833	0.0205	16.29815	0.15924	0.22334	8.78639	0.44702	2295.00767
3611	5	31	11.5	305.68893	0.19612	0.01794	0.01818	15.54546	0.13284	0.19802	8.28478	0.43199	2187.66359
3630	6	1	6.5	83.18921	0.16488	0.00488	0.0	0.0	0.0	0.0	9.76082	0.14352	657.0979
3631	6	1	7.5	162.06733	0.16951	0.00951	0.0	0.0	0.0	0.0	11.40571	0.14352	1389.0199
3632	6	1	8.5	243.05875	0.19429	0.01427	0.02002	15.20077	0.09212	0.2181	11.57229	0.42508	2083.36972
3633	6	1	9.5	309.41661	0.20214	0.01816	0.02398	17.13582	0.15988	0.26121	10.4488	0.46363	2494.27477
3634	6	1	10.5	388.36854	0.20687	0.0228	0.02407	17.82673	0.16071	0.26224	10.21406	0.47722	3074.84655
3635	6	1	11.5	442.77744	0.21046	0.02599	0.02446	18.3029	0.16101	0.26649	10.17453	0.48652	3522.34655
3636	6	1	12.5	464.61633	0.21265	0.02727	0.02537	18.65452	0.16123	0.2764	10.58923	0.49335	3770.05435
3637	6	1	13.5	457.63562	0.21125	0.02686	0.02438	18.3846	0.16157	0.26561	10.31606	0.48811	3608.94725
3638	6	1	14.5	408.03051	0.20957	0.02395	0.02562	18.37286	0.16602	0.27912	10.77875	0.48788	3274.7719
3639	6	1	15.5	337.96483	0.20708	0.01984	0.02724	18.19096	0.1671	0.29673	11.32871	0.48434	3474.69725
3640	6	1	16.5	248.09222	0.18071	0.01456	0.00614	9.76705	0.02345	0.06692	11.20642	0.31597	3139.07225
3641	6	1	17.5	155.37641	0.16912	0.00912	0.0	0.0	0.0	0.0	10.026	0.14352	1331.49951
3642	6	1	18.5	77.08223	0.16452	0.00452	0.0	0.0	0.0	0.0	8.46088	0.14352	665.74976
3654	6	2	6.5	76.39323	0.16448	0.00448	0.0	0.0	0.0	0.0	9.81509	0.14352	604.15513
3655	6	2	7.5	153.61025	0.16902	0.00902	0.0	0.0	0.0	0.0	10.99087	0.14352	1291.49168
3656	6	2	8.5	224.04186	0.17315	0.01315	0.0	0.0	0.0	0.0	10.53701	0.14352	1821.57512
3657	6	2	9.5	284.22164	0.19854	0.01668	0.02185	16.35591	0.15111	0.23804	9.72094	0.44817	2201.88354
3658	6	2	10.5	362.63959	0.20447	0.02129	0.02319	17.41254	0.16036	0.25257	9.85353	0.46909	2824.23944
3659	6	2	11.5	422.27086	0.20839	0.02479	0.02361	17.96162	0.16093	0.25715	9.77264	0.47986	3294.11444
3660	6	2	12.5	447.01748	0.21045	0.02624	0.02421	18.27088	0.16098	0.26371	10.01517	0.4859	3537.34015
3661	6	2	13.5	419.66096	0.20765	0.02463	0.02302	17.80473	0.16127	0.25071	9.66679	0.47679	3228.43909
3662	6	2	14.5	344.55115	0.20248	0.02023	0.02226	17.04537	0.16147	0.24247	9.64674	0.46184	2617.99552
3663	6	2	15.5	255.64713	0.17581	0.01501	0.0008	2.4065	0.00123	0.00875	9.19566	0.18079	2436.68789
3682	6	3	10.5	292.71402	0.19586	0.01718	0.01868	15.53384	0.12553	0.20347	8.82991	0.43176	2166.80482
3683	6	3	11.5	376.62738	0.2042	0.02211	0.0221	17.2579	0.16044	0.2407	9.2048	0.46604	2848.06409
3684	6	3	12.5	423.46898	0.20867	0.02486	0.02382	18.02038	0.16095	0.25945	9.92282	0.48101	3320.97155
3685	6	3	13.5	420.7267	0.20793	0.0247	0.02323	17.86794	0.16172	0.25308	9.75559	0.47803	3243.43269
3686	6	3	14.5	381.54641	0.20664	0.0224	0.02424	17.84863	0.16507	0.26405	10.21058	0.47765	2986.7962
3687	6	3	15.5	316.92672	0.20429	0.0186	0.02569	17.64335	0.16541	0.2798	10.90421	0.47362	3112.21515
3688	6	3	16.5	235.42682	0.1767	0.01382	0.00288	6.72933	0.00339	0.03138	10.69403	0.25719	2737.7719
3689	6	3	17.5	151.40884	0.16889	0.00889	0.0	0.0	0.0	0.0	9.8396	0.14352	1297.93701
3690	6	3	18.5	78.75614	0.16462	0.00462	0.0	0.0	0.0	0.0	8.50416	0.14352	667.59511
3706	6	4	10.5	256.946	0.17508	0.01508	0.0	0.0	0.0	0.0	8.2252	0.14352	1823.68302
3707	6	4	11.5	309.23336	0.19686	0.01815	0.01871	15.75113	0.14089	0.2038	8.26929	0.43611	2221.95092
3709	6	4	13.5	353.6562	0.20161	0.02076	0.02085	16.76397	0.16107	0.22711	8.85387	0.45627	2591.13842
3710	6	4	14.5	335.94796	0.20113	0.01972	0.02141	16.75609	0.16087	0.23327	9.32995	0.45612	2593.31289
3711	6	4	15.5	294.43666	0.20072	0.01728	0.02344	16.8962	0.16447	0.25535	10.06147	0.45889	2748.15024
3712	6	4	16.5	218.74969	0.17295	0.01284	0.00011	0.0	0.00016	0.00116	9.66414	0.14352	2078.75447
3713	6	4	17.5	138.11111	0.16811	0.00811	0.0	0.0	0.0	0.0	9.13461	0.14352	1138.54851
3726	6	5	6.5	70.41882	0.16413	0.00413	0.0	0.0	0.0	0.0	9.06756	0.14352	532.93152
3727	6	5	7.5	147.38729	0.16865	0.00865	0.0	0.0	0.0	0.0	10.29926	0.14352	1191.52901
3728	6	5	8.5	230.83259	0.17355	0.01355	0.0	0.0	0.0	0.0	10.82755	0.14352	1911.07512
3729	6	5	9.5	328.02414	0.20329	0.01926	0.02404	17.32149	0.16009	0.26186	10.37688	0.46729	2638.92087
3730	6	5	10.5	396.36961	0.20785	0.02327	0.02458	18.00504	0.16071	0.26777	10.45728	0.48071	3186.72155
3731	6	5	11.5	449.30201	0.21143	0.02637	0.02506	18.48319	0.16103	0.27296	10.4685	0.49003	3631.32225
3732	6	5	12.5	469.47458	0.21305	0.02756	0.02549	18.71137	0.16126	0.27765	10.64344	0.49445	3814.80435
3733	6	5	13.5	438.37225	0.2098	0.02573	0.02407	18.19066	0.16237	0.26215	10.07641	0.48433	3434.2962
3734	6	5	14.5	362.63627	0.20469	0.02129	0.02341	17.49345	0.16397	0.25498	9.95547	0.47068	2801.86444
3735	6	5	15.5	256.4535	0.17513	0.01505	8e-05	0.0	0.00014	0.00087	9.21097	0.14352	2259.20412
3808	6	8	16.5	182.10502	0.17069	0.01069	0.0	0.0	0.0	0.0	8.96841	0.14352	1731.21714
3809	6	8	17.5	139.30031	0.16818	0.00818	0.0	0.0	0.0	0.0	9.16538	0.14352	1297.21227
3810	6	8	18.5	79.07475	0.16464	0.00464	0.0	0.0	0.0	0.0	8.47892	0.14352	671.34351
3832	6	9	16.5	181.29154	0.17064	0.01064	0.0	0.0	0.0	0.0	8.86689	0.14352	1742.40464
3833	6	9	17.5	138.57005	0.16813	0.00813	0.0	0.0	0.0	0.0	9.11579	0.14352	1084.09395
3834	6	9	18.5	79.91206	0.16469	0.00469	0.0	0.0	0.0	0.0	8.28963	0.14352	694.08092
3848	6	10	8.5	172.31833	0.17012	0.01012	0.0	0.0	0.0	0.0	8.92703	0.14352	1284.34842
3849	6	10	9.5	245.02014	0.17438	0.01438	0.0	0.0	0.0	0.0	8.98782	0.14352	1834.14569
3850	6	10	10.5	297.79053	0.19541	0.01748	0.01793	15.36388	0.12068	0.19533	8.59637	0.42835	2176.47609
3851	6	10	11.5	329.52131	0.19957	0.01934	0.02023	16.38777	0.15965	0.22039	8.46154	0.4488	2402.40057
3852	6	10	12.5	331.32644	0.20035	0.01945	0.0209	16.57839	0.15984	0.2277	8.79507	0.45259	2456.16359
3853	6	10	13.5	377.73501	0.20456	0.02217	0.02239	17.3431	0.16106	0.24388	9.47996	0.46772	2886.88234
3854	6	10	14.5	377.77853	0.20672	0.02218	0.02455	17.88201	0.16387	0.26738	10.42623	0.4783	3001.78979
3855	6	10	15.5	339.15988	0.207	0.01991	0.02709	18.16882	0.16681	0.29511	11.3243	0.48391	3319.5219
3856	6	10	16.5	238.90331	0.17557	0.01402	0.00155	4.52423	0.00196	0.01684	10.60387	0.2169	2627.79995
3857	6	10	17.5	139.28972	0.16818	0.00818	0.0	0.0	0.0	0.0	9.18841	0.14352	1068.82892
3871	6	11	7.5	150.93259	0.16886	0.00886	0.0	0.0	0.0	0.0	10.20827	0.14352	1218.37723
3872	6	11	8.5	244.30107	0.19665	0.01434	0.02231	15.87147	0.11024	0.24307	11.57953	0.43851	2096.00687
3873	6	11	9.5	340.35523	0.20655	0.01998	0.02657	18.01436	0.16043	0.28945	11.57513	0.48089	2898.879
3874	6	11	10.5	404.90072	0.21044	0.02377	0.02667	18.54499	0.16099	0.29051	11.50916	0.49123	3412.05435
3875	6	11	11.5	457.79491	0.21281	0.02687	0.02593	18.73854	0.16124	0.2825	10.91529	0.49498	3764.1226
3876	6	11	12.5	462.92194	0.21377	0.02717	0.0266	18.92082	0.16124	0.28975	11.17054	0.4985	3880.4797
3877	6	11	13.5	458.44097	0.21282	0.02691	0.02591	18.74476	0.16221	0.28223	10.9697	0.4951	3747.67935
3878	6	11	14.5	415.48766	0.21206	0.02439	0.02767	18.91193	0.16897	0.30138	11.46455	0.49833	3434.42935
3879	6	11	15.5	349.11182	0.20873	0.02049	0.02823	18.50194	0.16648	0.30757	11.81966	0.49039	3704.379
3880	6	11	16.5	264.95396	0.20351	0.01555	0.02796	17.59713	0.16273	0.30455	12.15203	0.47272	3771.504
3881	6	11	17.5	174.11419	0.17022	0.01022	0.0	0.0	0.0	0.0	11.33635	0.14352	1504.5856
3882	6	11	18.5	91.32182	0.16536	0.00536	0.0	0.0	0.0	0.0	9.6313	0.14352	733.2705
3894	6	12	6.5	85.72009	0.16503	0.00503	0.0	0.0	0.0	0.0	9.89631	0.14352	682.92675
3895	6	12	7.5	162.30101	0.16953	0.00953	0.0	0.0	0.0	0.0	11.61794	0.14352	1412.11972
3896	6	12	8.5	243.11315	0.19667	0.01427	0.0224	15.87516	0.11034	0.24399	11.70448	0.43859	2094.55722
3897	6	12	9.5	307.13657	0.20249	0.01803	0.02446	17.22806	0.15991	0.26647	10.65124	0.46545	2516.64977
3898	6	12	10.5	349.89287	0.20337	0.02054	0.02283	17.22051	0.1602	0.24867	9.69733	0.4653	2713.81409
3899	6	12	11.5	362.49529	0.20267	0.02128	0.02139	16.96871	0.16018	0.23305	8.93209	0.46033	2709.33199
3900	6	12	12.5	334.43848	0.20028	0.01963	0.02064	16.53927	0.15981	0.22489	8.68257	0.45182	2457.61324
3901	6	12	13.5	333.78991	0.19968	0.01959	0.02009	16.38772	0.1597	0.21882	8.57142	0.4488	2421.80969
3902	6	12	14.5	306.13251	0.19664	0.01797	0.01867	15.69014	0.13402	0.20336	8.79703	0.43489	2346.46307
3903	6	12	15.5	257.00309	0.17542	0.01509	0.00033	0.0	0.00056	0.00361	9.30794	0.14352	2391.93789
3904	6	12	16.5	185.6856	0.1709	0.0109	0.0	0.0	0.0	0.0	8.91623	0.14352	1787.87947
3918	6	13	6.5	70.29055	0.16413	0.00413	0.0	0.0	0.0	0.0	8.9501	0.14352	525.46357
3919	6	13	7.5	135.00546	0.16792	0.00792	0.0	0.0	0.0	0.0	9.71244	0.14352	1055.79607
3920	6	13	8.5	193.39652	0.17135	0.01135	0.0	0.0	0.0	0.0	9.76363	0.14352	1512.74065
3921	6	13	9.5	244.75176	0.17437	0.01437	0.0	0.0	0.0	0.0	9.16619	0.14352	1843.88354
3922	6	13	10.5	297.24113	0.19573	0.01745	0.01828	15.46652	0.12366	0.19916	8.64541	0.43041	2180.16679
3923	6	13	11.5	329.28311	0.19959	0.01933	0.02026	16.39438	0.15966	0.22075	8.47244	0.44894	2401.67574
3924	6	13	12.5	331.22186	0.20037	0.01944	0.02093	16.58371	0.15977	0.22798	8.80584	0.4527	2456.16359
3925	6	13	13.5	328.45981	0.19976	0.01928	0.02048	16.44414	0.15979	0.22311	8.82475	0.44992	2404.64162
3926	6	13	14.5	301.39151	0.19748	0.01769	0.01979	15.97016	0.14131	0.21554	9.08318	0.44048	2334.55074
3927	6	13	15.5	258.66333	0.17589	0.01518	0.00071	1.98952	0.0011	0.0077	9.16943	0.17403	2402.40057
3928	6	13	16.5	195.42159	0.17147	0.01147	0.0	0.0	0.0	0.0	9.24715	0.14352	1831.90464
3929	6	13	17.5	133.91532	0.16786	0.00786	0.0	0.0	0.0	0.0	8.79683	0.14352	1262.69816
3942	6	14	6.5	70.27761	0.16413	0.00413	0.0	0.0	0.0	0.0	8.96584	0.14352	527.33777
3943	6	14	7.5	149.55906	0.16878	0.00878	0.0	0.0	0.0	0.0	10.71767	0.14352	1241.51035
3944	6	14	8.5	241.76378	0.19151	0.01419	0.01732	14.37778	0.0756	0.18868	11.49542	0.40854	2070.666
3945	6	14	9.5	335.04249	0.20592	0.01967	0.02625	17.8958	0.16034	0.28596	11.44823	0.47857	2846.7476
3946	6	14	10.5	399.22259	0.20898	0.02343	0.02555	18.24969	0.16083	0.2783	10.93987	0.48548	3279.254
3947	6	14	11.5	431.27753	0.21027	0.02532	0.02496	18.33988	0.16098	0.27185	10.43349	0.48724	3477.59655
3948	6	14	12.5	432.23084	0.20988	0.02537	0.02451	18.24339	0.16101	0.267	10.17013	0.48536	3455.22155
3949	6	14	13.5	417.38109	0.20791	0.0245	0.02341	17.88084	0.16105	0.25497	9.81149	0.47828	3244.88234
3950	6	14	14.5	365.03683	0.20569	0.02143	0.02427	17.74408	0.16741	0.26433	10.08481	0.4756	2825.68909
3951	6	14	15.5	295.60106	0.2007	0.01735	0.02335	16.88522	0.16421	0.25437	10.03028	0.45868	2755.53164
3952	6	14	16.5	229.41175	0.17552	0.01347	0.00205	5.42385	0.00261	0.02238	10.53254	0.23304	2463.67815
3953	6	14	17.5	158.98383	0.16933	0.00933	0.0	0.0	0.0	0.0	9.70721	0.14352	1384.47122
3954	6	14	18.5	87.21526	0.16512	0.00512	0.0	0.0	0.0	0.0	8.75594	0.14352	716.45596
3966	6	15	6.5	85.56028	0.16502	0.00502	0.0	0.0	0.0	0.0	9.93635	0.14352	683.28916
3967	6	15	7.5	162.90473	0.16956	0.00956	0.0	0.0	0.0	0.0	11.82838	0.14352	1433.7699
3968	6	15	8.5	253.96664	0.2017	0.01491	0.02679	17.2036	0.1591	0.29185	12.01067	0.46497	2228.0824
3969	6	15	9.5	335.97369	0.20662	0.01972	0.0269	18.04894	0.16039	0.29299	11.81171	0.48157	2890.04795
3970	6	15	10.5	400.85461	0.20982	0.02353	0.02628	18.42936	0.16094	0.28633	11.31584	0.48898	3359.92295
3971	6	15	11.5	440.3288	0.21124	0.02585	0.02539	18.5001	0.16101	0.27656	10.67079	0.49035	3585.1226
3972	6	15	12.5	442.70034	0.2108	0.02599	0.02481	18.38261	0.16102	0.27026	10.27998	0.48807	3561.16479
3973	6	15	13.5	438.14503	0.21073	0.02572	0.02501	18.4202	0.16365	0.27248	10.48554	0.4888	3514.96515
3974	6	15	14.5	401.2141	0.20985	0.02355	0.0263	18.493	0.16771	0.28647	10.93642	0.49022	3252.3969
3975	6	15	15.5	336.87404	0.20715	0.01977	0.02737	18.20615	0.16603	0.29816	11.51909	0.48463	3385.19725
3976	6	15	16.5	261.68619	0.20312	0.01536	0.02776	17.51629	0.16248	0.30241	12.0962	0.47113	3652.2476
3977	6	15	17.5	174.89452	0.17027	0.01027	0.0	0.0	0.0	0.0	11.44691	0.14352	1515.7731
3978	6	15	18.5	98.15906	0.16576	0.00576	0.0	0.0	0.0	0.0	9.97394	0.14352	800.75791
4039	6	18	7.5	119.57247	0.16702	0.00702	0.0	0.0	0.0	0.0	9.23279	0.14352	911.4791
4040	6	18	8.5	184.27926	0.17082	0.01082	0.0	0.0	0.0	0.0	9.49626	0.14352	1419.54995
4041	6	18	9.5	245.05648	0.17438	0.01438	0.0	0.0	0.0	0.0	9.21059	0.14352	1847.57425
4042	6	18	10.5	297.46642	0.19595	0.01746	0.01849	15.53309	0.12598	0.20142	8.66881	0.43174	2180.16679
4043	6	18	11.5	331.23921	0.19972	0.01944	0.02027	16.41327	0.15965	0.22082	8.49039	0.44931	2413.58807
4044	6	18	12.5	330.76361	0.20055	0.01942	0.02113	16.63146	0.15976	0.23019	8.87721	0.45365	2471.04179
4045	6	18	13.5	334.35942	0.19983	0.01963	0.02021	16.42429	0.15979	0.22011	8.61866	0.44953	2435.96307
4046	6	18	14.5	307.90223	0.19726	0.01807	0.01919	15.86707	0.13943	0.20904	8.84414	0.43842	2369.56289
4047	6	18	15.5	256.75416	0.17508	0.01507	1e-05	0.0	2e-05	0.0001	9.27623	0.14352	2025.78284
4048	6	18	16.5	230.78655	0.17524	0.01355	0.00169	4.74118	0.00243	0.01841	10.16997	0.22075	2292.89977
4049	6	18	17.5	165.02497	0.16969	0.00969	0.0	0.0	0.0	0.0	10.54253	0.14352	1367.36972
4050	6	18	18.5	93.62317	0.1655	0.0055	0.0	0.0	0.0	0.0	9.62907	0.14352	750.05175
4069	6	19	13.5	309.08599	0.19803	0.01814	0.01989	16.10299	0.15458	0.21666	8.72157	0.44313	2247.29179
4070	6	19	14.5	319.29128	0.20033	0.01874	0.02159	16.65397	0.16118	0.23518	9.428	0.45409	2434.51342
4071	6	19	15.5	296.43882	0.20076	0.0174	0.02336	16.89132	0.16355	0.2545	10.10987	0.4588	2503.87947
4072	6	19	16.5	242.36418	0.17685	0.01423	0.00262	6.47564	0.00311	0.02858	10.85037	0.25244	2737.7719
4073	6	19	17.5	169.25098	0.16994	0.00994	0.0	0.0	0.0	0.0	10.60784	0.14352	1412.84455
4074	6	19	18.5	93.6966	0.1655	0.0055	0.0	0.0	0.0	0.0	9.65128	0.14352	750.05175
4110	6	21	6.5	84.28068	0.16495	0.00495	0.0	0.0	0.0	0.0	9.93403	0.14352	677.333
4111	6	21	7.5	162.07312	0.16951	0.00951	0.0	0.0	0.0	0.0	11.74577	0.14352	1422.5824
4112	6	21	8.5	250.46123	0.20147	0.0147	0.02677	17.15697	0.15883	0.29162	12.01856	0.46405	2195.24472
4113	6	21	9.5	331.28586	0.20617	0.01945	0.02672	17.96875	0.16036	0.29108	11.68588	0.48	2846.7476
4114	6	21	10.5	398.4955	0.20911	0.02339	0.02572	18.28375	0.16092	0.28015	11.04967	0.48615	3294.2476
4115	6	21	11.5	439.8306	0.21116	0.02582	0.02534	18.48689	0.16101	0.27609	10.62589	0.4901	3586.57225
4116	6	21	12.5	449.76658	0.21148	0.0264	0.02508	18.49096	0.16105	0.27317	10.43858	0.49018	3632.7719
4117	6	21	13.5	446.008	0.21133	0.02618	0.02515	18.48806	0.1618	0.27392	10.59367	0.49012	3603.0155
4118	6	21	14.5	413.28155	0.21094	0.02426	0.02668	18.66618	0.16781	0.29063	11.12943	0.49357	3383.7476
4119	6	21	15.5	348.19953	0.20906	0.02044	0.02862	18.58142	0.16679	0.31174	12.00079	0.49193	3747.67935
4120	6	21	16.5	270.24076	0.20419	0.01586	0.02833	17.73919	0.16289	0.30858	12.30847	0.4755	3898.3726
4121	6	21	17.5	183.81322	0.17079	0.01079	0.0	0.0	0.0	0.0	11.69558	0.14352	1612.7699
4122	6	21	18.5	101.11533	0.16594	0.00594	0.0	0.0	0.0	0.0	10.11718	0.14352	834.32041
4123	6	21	19.5	33.82985	0.16199	0.00199	0.0	0.0	0.0	0.0	7.12957	0.14352	262.54226
4135	6	22	7.5	117.46604	0.1669	0.0069	0.0	0.0	0.0	0.0	9.23762	0.14352	898.44625
4136	6	22	8.5	182.02089	0.17068	0.01068	0.0	0.0	0.0	0.0	9.25981	0.14352	1386.71227
4137	6	22	9.5	244.38848	0.17435	0.01435	0.0	0.0	0.0	0.0	9.08665	0.14352	1833.42087
4138	6	22	10.5	270.29539	0.17587	0.01587	0.0	0.0	0.0	0.0	8.78698	0.14352	1990.77069
4140	6	22	12.5	257.00078	0.17509	0.01509	0.0	0.0	0.0	0.0	8.14695	0.14352	1823.68302
4158	6	23	6.5	69.63519	0.16409	0.00409	0.0	0.0	0.0	0.0	9.08155	0.14352	528.26045
4159	6	23	7.5	147.90641	0.16868	0.00868	0.0	0.0	0.0	0.0	10.64071	0.14352	1224.7291
4160	6	23	8.5	237.59114	0.179	0.01395	0.00506	8.92519	0.02902	0.05508	11.49032	0.29939	2037.1035
4161	6	23	9.5	327.33669	0.20584	0.01921	0.02663	17.91291	0.16036	0.29007	11.63673	0.47891	2801.9976
4162	6	23	10.5	390.98358	0.20845	0.02295	0.0255	18.17677	0.16078	0.27773	10.93732	0.48406	3213.57865
4163	6	23	11.5	418.44489	0.20922	0.02456	0.02466	18.18203	0.16093	0.26859	10.25487	0.48416	3359.78979
4164	6	23	12.5	420.30017	0.20828	0.02467	0.02361	17.94936	0.16091	0.25721	9.74637	0.47962	3295.56409
4165	6	23	13.5	375.82158	0.20424	0.02206	0.02218	17.27283	0.16065	0.24158	9.3733	0.46633	2864.50734
4166	6	23	14.5	297.29528	0.19715	0.01745	0.0197	15.89708	0.13989	0.21459	9.14919	0.43902	2212.27964
4168	6	23	16.5	184.21771	0.17081	0.01081	0.0	0.0	0.0	0.0	9.00557	0.14352	1689.43302
4169	6	23	17.5	143.57163	0.16843	0.00843	0.0	0.0	0.0	0.0	9.23172	0.14352	1320.31201
4170	6	23	18.5	85.33852	0.16501	0.00501	0.0	0.0	0.0	0.0	8.4348	0.14352	726.52293
4183	6	24	7.5	132.84632	0.1678	0.0078	0.0	0.0	0.0	0.0	9.95263	0.14352	1057.27901
4184	6	24	8.5	222.7039	0.17307	0.01307	0.0	0.0	0.0	0.0	10.56615	0.14352	1814.80315
4185	6	24	9.5	311.62903	0.2033	0.01829	0.02501	17.39771	0.15999	0.27239	10.88362	0.46879	2573.3121
4186	6	24	10.5	391.18668	0.20819	0.02296	0.02523	18.11698	0.1608	0.27482	10.77194	0.4829	3200.2655
4187	6	24	11.5	443.84198	0.21167	0.02605	0.02562	18.5756	0.16103	0.27906	10.78878	0.49182	3629.8726
4188	6	24	12.5	465.72882	0.21317	0.02734	0.02583	18.76478	0.16123	0.28134	10.76617	0.49548	3816.254
4189	6	24	13.5	459.47861	0.21303	0.02697	0.02606	18.78524	0.16226	0.28384	11.05977	0.49588	3770.05435
4190	6	24	14.5	415.38223	0.21211	0.02438	0.02773	18.90734	0.16701	0.30205	11.68727	0.49824	3500.1047
4191	6	24	15.5	348.94271	0.21011	0.02048	0.02963	18.80721	0.16705	0.32277	12.41173	0.4963	3852.17295
4192	6	24	16.5	268.76651	0.20496	0.01578	0.02919	17.90639	0.16308	0.31793	12.66894	0.47878	4032.6226
4193	6	24	17.5	182.9606	0.17074	0.01074	0.0	0.0	0.0	0.0	11.95411	0.14352	1615.01095
4194	6	24	18.5	102.36007	0.16601	0.00601	0.0	0.0	0.0	0.0	10.02746	0.14352	845.50791
4195	6	24	19.5	34.14217	0.162	0.002	0.0	0.0	0.0	0.0	7.19864	0.14352	264.0313
4206	6	25	6.5	80.68729	0.16474	0.00474	0.0	0.0	0.0	0.0	10.03107	0.14352	651.32295
4207	6	25	7.5	159.61729	0.16937	0.00937	0.0	0.0	0.0	0.0	11.75699	0.14352	1400.2074
4208	6	25	8.5	248.03564	0.20155	0.01456	0.02699	17.17804	0.15885	0.29402	12.16623	0.46446	2186.29827
4209	6	25	9.5	328.43851	0.20649	0.01928	0.02721	18.05268	0.1604	0.2964	11.97332	0.48164	2851.2297
4210	6	25	10.5	394.3684	0.21001	0.02315	0.02686	18.50975	0.16092	0.29256	11.61345	0.49054	3344.92935
4211	6	25	11.5	438.6936	0.21198	0.02575	0.02623	18.68004	0.16107	0.28571	11.07728	0.49384	3652.2476
4212	6	25	12.5	455.23338	0.21243	0.02672	0.02571	18.67208	0.16119	0.28009	10.73432	0.49369	3726.754
4213	6	25	13.5	451.54681	0.21229	0.02651	0.02579	18.66842	0.16154	0.28092	10.94598	0.49362	3702.92935
4214	6	25	14.5	418.10365	0.21229	0.02454	0.02775	18.94698	0.16884	0.30226	11.54112	0.499	3477.7297
4215	6	25	15.5	347.94544	0.20942	0.02042	0.029	18.65538	0.16602	0.31587	12.28331	0.49337	3792.42935
4216	6	25	16.5	270.48482	0.20467	0.01588	0.02879	17.84164	0.16309	0.31362	12.48635	0.47751	3972.879
4217	6	25	17.5	183.02852	0.17074	0.01074	0.0	0.0	0.0	0.0	11.91685	0.14352	1615.01095
4218	6	25	18.5	102.40791	0.16601	0.00601	0.0	0.0	0.0	0.0	10.05812	0.14352	844.02497
4219	6	25	19.5	33.92584	0.16199	0.00199	0.0	0.0	0.0	0.0	7.15806	0.14352	261.14382
4230	6	26	6.5	80.31368	0.16471	0.00471	0.0	0.0	0.0	0.0	9.8386	0.14352	637.33857
4231	6	26	7.5	150.98245	0.16886	0.00886	0.0	0.0	0.0	0.0	11.04135	0.14352	1274.71043
4232	6	26	8.5	200.83879	0.17179	0.01179	0.0	0.0	0.0	0.0	9.7937	0.14352	1568.67815
4233	6	26	9.5	185.76126	0.1709	0.0109	0.0	0.0	0.0	0.0	8.35376	0.14352	1330.77477
4240	6	26	16.5	183.69162	0.17078	0.01078	0.0	0.0	0.0	0.0	8.91995	0.14352	1388.95332
4241	6	26	17.5	143.58132	0.16843	0.00843	0.0	0.0	0.0	0.0	9.20499	0.14352	1320.31201
4242	6	26	18.5	85.3612	0.16501	0.00501	0.0	0.0	0.0	0.0	8.46977	0.14352	732.11668
4258	6	27	10.5	290.46406	0.19587	0.01705	0.01882	15.54767	0.1246	0.20502	8.95244	0.43204	2167.52964
4259	6	27	11.5	371.93786	0.20439	0.02183	0.02256	17.33566	0.16049	0.24576	9.41874	0.46757	2864.50734
4260	6	27	12.5	418.05191	0.20895	0.02454	0.02441	18.12176	0.16099	0.26588	10.15976	0.48299	3335.96515
4261	6	27	13.5	393.48639	0.2061	0.0231	0.023	17.62132	0.16225	0.25059	9.65897	0.47319	3021.13234
4262	6	27	14.5	338.53104	0.20171	0.01987	0.02183	16.89049	0.1618	0.23784	9.42536	0.45878	2567.24719
4263	6	27	15.5	262.01226	0.17635	0.01538	0.00097	3.14837	0.00156	0.01057	9.2805	0.19312	2421.80969
4264	6	27	16.5	201.42858	0.17182	0.01182	0.0	0.0	0.0	0.0	9.48084	0.14352	1832.62947
4265	6	27	17.5	135.9896	0.16798	0.00798	0.0	0.0	0.0	0.0	8.8567	0.14352	1133.31717
4283	6	28	11.5	278.91133	0.17637	0.01637	0.0	0.0	0.0	0.0	8.22075	0.14352	1989.25447
4284	6	28	12.5	335.95842	0.20032	0.01972	0.0206	16.5417	0.15984	0.22442	8.67467	0.45186	2468.80074
4285	6	28	13.5	311.39239	0.1973	0.01828	0.01903	15.8689	0.14503	0.20725	8.46316	0.43846	2245.05074
4286	6	28	14.5	261.54631	0.17535	0.01535	0.0	0.0	0.0	0.0	8.47826	0.14352	1922.12947
4303	6	29	7.5	140.14077	0.16823	0.00823	0.0	0.0	0.0	0.0	10.29082	0.14352	1138.9775
4304	6	29	8.5	237.12514	0.17414	0.01392	0.00022	0.0	0.00209	0.00237	11.23455	0.14352	2003.541
4305	6	29	9.5	330.24061	0.2057	0.01939	0.02632	17.86835	0.16037	0.28666	11.45892	0.47804	2803.44725
4306	6	29	10.5	386.50625	0.2079	0.02269	0.02521	18.0768	0.16075	0.27459	10.76431	0.48211	3162.8969
4307	6	29	11.5	411.11274	0.20764	0.02413	0.02351	17.86014	0.16081	0.25612	9.76169	0.47787	3206.06409
4308	6	29	12.5	378.97573	0.20526	0.02225	0.02301	17.50078	0.16054	0.25067	9.5841	0.47082	2937.56409
4309	6	29	13.5	393.49658	0.20586	0.0231	0.02276	17.55559	0.16126	0.24797	9.58053	0.4719	3021.13234
4310	6	29	14.5	377.15823	0.20659	0.02214	0.02445	17.88582	0.1678	0.26632	10.09801	0.47838	2930.18269
4311	6	29	15.5	322.02905	0.20473	0.0189	0.02583	17.72417	0.16535	0.28136	10.98389	0.47521	2983.8969
4312	6	29	16.5	238.47803	0.17636	0.014	0.00236	6.04744	0.00312	0.02573	10.51416	0.24448	2515.92495
4313	6	29	17.5	150.98735	0.16886	0.00886	0.0	0.0	0.0	0.0	9.5729	0.14352	1342.68701
4326	6	30	6.5	77.10155	0.16453	0.00453	0.0	0.0	0.0	0.0	9.67293	0.14352	606.39174
4327	6	30	7.5	146.51394	0.1686	0.0086	0.0	0.0	0.0	0.0	10.941	0.14352	1229.96043
4328	6	30	8.5	216.10107	0.17269	0.01269	0.0	0.0	0.0	0.0	10.88421	0.14352	1802.166
4329	6	30	9.5	278.22811	0.19828	0.01633	0.02194	16.29565	0.14453	0.23905	9.91834	0.44697	2190.69604
4330	6	30	10.5	346.63397	0.2032	0.02035	0.02285	17.19826	0.16016	0.24891	9.71364	0.46486	2691.43909
4331	6	30	11.5	401.32665	0.20662	0.02356	0.02306	17.68152	0.16063	0.25125	9.58607	0.47437	3109.18269
4332	6	30	12.5	425.19219	0.20846	0.02496	0.02351	17.9576	0.16088	0.25605	9.68241	0.47978	3317.93909
4333	6	30	13.5	430.01064	0.20882	0.02524	0.02358	18.01164	0.16128	0.2569	9.8713	0.48084	3355.30769
4334	6	30	14.5	397.58569	0.20912	0.02334	0.02578	18.3437	0.16715	0.28083	10.751	0.48731	3207.6469
4335	6	30	15.5	342.92213	0.20745	0.02013	0.02732	18.2494	0.1664	0.29756	11.48357	0.48548	3452.32225
4336	6	30	16.5	267.02753	0.20362	0.01567	0.02795	17.61888	0.16293	0.30445	12.11363	0.47314	3674.6226
4337	6	30	17.5	179.21931	0.17052	0.01052	0.0	0.0	0.0	0.0	11.5117	0.14352	1556.8324
4338	6	30	18.5	101.76546	0.16597	0.00597	0.0	0.0	0.0	0.0	10.07783	0.14352	833.958
4339	6	30	19.5	35.10911	0.16206	0.00206	0.0	0.0	0.0	0.0	7.2284	0.14352	278.67264
4350	7	1	6.5	76.26023	0.16448	0.00448	0.0	0.0	0.0	0.0	9.65178	0.14352	600.79799
4351	7	1	7.5	156.06299	0.16916	0.00916	0.0	0.0	0.0	0.0	11.46534	0.14352	1348.54971
4352	7	1	8.5	246.86816	0.19993	0.01449	0.02544	16.77096	0.14466	0.27711	11.82765	0.45641	2139.30722
4353	7	1	9.5	331.14009	0.20612	0.01944	0.02668	17.95835	0.16044	0.2906	11.69271	0.4798	2830.30435
4354	7	1	10.5	401.84735	0.20975	0.02359	0.02616	18.4082	0.16097	0.28495	11.24883	0.48857	3344.92935
4355	7	1	11.5	445.4986	0.21238	0.02615	0.02623	18.72585	0.16117	0.28573	11.08636	0.49473	3702.92935
4356	7	1	12.5	462.34592	0.21343	0.02714	0.02629	18.84827	0.16126	0.28639	11.0303	0.4971	3835.7297
4357	7	1	13.5	458.80072	0.21262	0.02693	0.02569	18.69252	0.16158	0.27984	10.87964	0.49408	3747.67935
4358	7	1	14.5	417.5799	0.21203	0.02451	0.02752	18.88934	0.16853	0.29974	11.44069	0.49789	3456.80435
4359	7	1	15.5	353.63403	0.20883	0.02076	0.02807	18.49969	0.16591	0.30577	11.81111	0.49035	3658.17935
4360	7	1	16.5	270.05773	0.20391	0.01585	0.02806	17.68361	0.16306	0.30569	12.18507	0.47441	3764.1226
4361	7	1	17.5	179.45619	0.17053	0.01053	0.0	0.0	0.0	0.0	11.36615	0.14352	1556.8324
4362	7	1	18.5	96.18635	0.16565	0.00565	0.0	0.0	0.0	0.0	9.70295	0.14352	767.19541
4374	7	2	6.5	62.34083	0.16366	0.00366	0.0	0.0	0.0	0.0	8.57765	0.14352	455.92075
4375	7	2	7.5	129.27926	0.16759	0.00759	0.0	0.0	0.0	0.0	9.82108	0.14352	1021.87116
4376	7	2	8.5	203.85028	0.17197	0.01197	0.0	0.0	0.0	0.0	9.86091	0.14352	1602.24065
4377	7	2	9.5	272.94654	0.19616	0.01602	0.02013	15.69529	0.1202	0.21933	9.86429	0.43499	2138.44925
4378	7	2	10.5	362.63246	0.20502	0.02129	0.02373	17.54414	0.16049	0.25852	10.10325	0.47168	2868.98944
4379	7	2	11.5	425.33037	0.20958	0.02497	0.02461	18.21917	0.16095	0.26809	10.23491	0.48489	3404.53979
4380	7	2	12.5	458.25715	0.21193	0.0269	0.02503	18.53624	0.16116	0.27271	10.3583	0.49106	3693.96515
4381	7	2	13.5	450.41921	0.21149	0.02644	0.02505	18.49603	0.16198	0.27288	10.55566	0.49027	3610.3969
4382	7	2	14.5	406.09475	0.21001	0.02384	0.02618	18.50063	0.16774	0.28514	10.88151	0.49036	3274.7719
4383	7	2	15.5	338.49608	0.20675	0.01987	0.02688	18.11632	0.16672	0.29282	11.2432	0.48288	3250.94725
4384	7	2	16.5	234.71935	0.17499	0.01378	0.00122	3.61404	0.00174	0.01324	10.18759	0.20104	2340.61565
4424	7	4	8.5	174.11114	0.17022	0.01022	0.0	0.0	0.0	0.0	9.16262	0.14352	1318.86245
4425	7	4	9.5	274.33768	0.19554	0.0161	0.01943	15.50719	0.11498	0.2117	9.73892	0.43123	2135.48337
4426	7	4	10.5	352.61703	0.20407	0.0207	0.02337	17.37404	0.1603	0.25455	9.94368	0.46833	2778.03979
4427	7	4	11.5	411.59003	0.20813	0.02416	0.02397	17.97284	0.16086	0.26111	9.95918	0.48008	3249.36444
4428	7	4	12.5	446.11626	0.21037	0.02619	0.02418	18.25865	0.16107	0.26339	9.95254	0.48566	3532.85804
4429	7	4	13.5	436.85097	0.2101	0.02564	0.02446	18.26505	0.1614	0.26643	10.30207	0.48578	3476.1469
4430	7	4	14.5	399.8197	0.20906	0.02347	0.02559	18.30782	0.16604	0.2788	10.75634	0.48662	3230.0219
4431	7	4	15.5	338.05466	0.20675	0.01984	0.02691	18.12136	0.16711	0.29313	11.21212	0.48298	3246.46515
4432	7	4	16.5	264.56063	0.20281	0.01553	0.02728	17.44422	0.16295	0.29719	11.86448	0.46971	3547.754
4433	7	4	17.5	178.99069	0.17051	0.01051	0.0	0.0	0.0	0.0	11.00345	0.14352	1512.80722
4434	7	4	18.5	95.40537	0.1656	0.0056	0.0	0.0	0.0	0.0	9.51154	0.14352	755.6455
4446	7	5	6.5	75.01143	0.1644	0.0044	0.0	0.0	0.0	0.0	9.45108	0.14352	581.21987
4447	7	5	7.5	153.84449	0.16903	0.00903	0.0	0.0	0.0	0.0	11.40182	0.14352	1325.05418
4448	7	5	8.5	245.27758	0.1985	0.0144	0.0241	16.38156	0.12874	0.26256	11.75743	0.44868	2116.93222
4449	7	5	9.5	329.30113	0.20588	0.01933	0.02655	17.91395	0.1604	0.28926	11.6384	0.47893	2807.92935
4450	7	5	10.5	401.51621	0.20953	0.02357	0.02596	18.36127	0.16089	0.28283	11.17235	0.48766	3337.54795
4451	7	5	11.5	445.91558	0.21228	0.02618	0.02611	18.70109	0.16111	0.28442	11.03655	0.49425	3695.54795
4452	7	5	12.5	462.78047	0.21344	0.02717	0.02627	18.84639	0.1612	0.28619	11.01789	0.49706	3835.7297
4453	7	5	13.5	460.99045	0.21271	0.02706	0.02565	18.70274	0.1624	0.27936	10.84883	0.49428	3747.67935
4454	7	5	14.5	417.3026	0.21178	0.0245	0.02728	18.82123	0.16694	0.2972	11.50909	0.49657	3477.7297
4455	7	5	15.5	351.66408	0.20888	0.02064	0.02824	18.52328	0.16614	0.30763	11.94067	0.4908	3702.92935
4456	7	5	16.5	269.69019	0.20433	0.01583	0.0285	17.77095	0.16335	0.31048	12.30147	0.47613	3816.254
4457	7	5	17.5	176.5269	0.17036	0.01036	0.0	0.0	0.0	0.0	11.45007	0.14352	1534.4574
4458	7	5	18.5	95.89367	0.16563	0.00563	0.0	0.0	0.0	0.0	9.48163	0.14352	761.60166
4470	7	6	6.5	71.39813	0.16419	0.00419	0.0	0.0	0.0	0.0	9.56006	0.14352	558.48245
4471	7	6	7.5	152.43427	0.16895	0.00895	0.0	0.0	0.0	0.0	11.12911	0.14352	1291.8541
4472	7	6	8.5	232.93166	0.17367	0.01367	0.0	0.0	0.0	0.0	11.46088	0.14352	1991.62867
4473	7	6	9.5	310.02483	0.20323	0.0182	0.02504	17.38949	0.16	0.27271	10.94816	0.46863	2571.86245
4474	7	6	10.5	359.94793	0.20472	0.02113	0.02359	17.48883	0.16038	0.25702	10.07019	0.47059	2845.16479
4475	7	6	11.5	366.82256	0.20357	0.02153	0.02204	17.16543	0.16034	0.24006	9.19954	0.46422	2782.38874
4476	7	6	12.5	327.96056	0.19976	0.01925	0.02051	16.44619	0.15965	0.22342	8.61299	0.44997	2404.64162
4477	7	6	13.5	319.32606	0.19819	0.01874	0.01945	16.08449	0.1568	0.21187	8.43494	0.44276	2289.80074
4478	7	6	14.5	281.05242	0.17698	0.0165	0.00048	0.87072	0.00521	0.0052	8.53274	0.1565	2087.70092
4494	7	7	6.5	72.33944	0.16425	0.00425	0.0	0.0	0.0	0.0	9.43501	0.14352	558.66366
4495	7	7	7.5	152.36215	0.16894	0.00894	0.0	0.0	0.0	0.0	11.21914	0.14352	1297.08543
4496	7	7	8.5	239.83208	0.19569	0.01408	0.02162	15.60034	0.10032	0.23547	11.84176	0.43309	2083.36972
4497	7	7	9.5	325.44934	0.20563	0.0191	0.02653	17.87358	0.16034	0.28898	11.65047	0.47814	2779.6226
4498	7	7	10.5	395.87604	0.20938	0.02324	0.02614	18.36017	0.16085	0.28477	11.29145	0.48763	3300.17935
4499	7	7	11.5	444.73668	0.2119	0.02611	0.02579	18.62203	0.16105	0.28099	10.88557	0.49272	3652.2476
4500	7	7	12.5	463.99413	0.21313	0.02724	0.02589	18.76949	0.1613	0.28207	10.84721	0.49557	3813.3547
4501	7	7	13.5	461.90752	0.21253	0.02711	0.02541	18.66266	0.16336	0.27682	10.7022	0.49351	3725.30435
4502	7	7	14.5	420.35239	0.21187	0.02467	0.02719	18.83336	0.16829	0.29619	11.36313	0.49681	3456.80435
4503	7	7	15.5	351.36172	0.20852	0.02062	0.0279	18.44442	0.16593	0.30387	11.8147	0.48927	3719.3726
4504	7	7	16.5	270.29603	0.20439	0.01587	0.02852	17.77909	0.16345	0.31071	12.28338	0.47629	3861.004
4505	7	7	17.5	176.64341	0.17037	0.01037	0.0	0.0	0.0	0.0	11.40036	0.14352	1526.23577
4506	7	7	18.5	96.47827	0.16566	0.00566	0.0	0.0	0.0	0.0	9.50969	0.14352	761.60166
4518	7	8	6.5	71.48015	0.1642	0.0042	0.0	0.0	0.0	0.0	9.41	0.14352	551.0145
4519	7	8	7.5	153.00784	0.16898	0.00898	0.0	0.0	0.0	0.0	11.12045	0.14352	1291.49168
4520	7	8	8.5	240.54981	0.19541	0.01412	0.02129	15.52075	0.09923	0.23195	11.79695	0.4315	2083.36972
4521	7	8	9.5	324.77354	0.20551	0.01906	0.02644	17.84835	0.16029	0.28806	11.66132	0.47764	2765.0824
4522	7	8	10.5	396.35053	0.20935	0.02327	0.02609	18.35204	0.16091	0.2842	11.27329	0.48748	3300.17935
4523	7	8	11.5	447.43763	0.212	0.02626	0.02573	18.62527	0.16109	0.28029	10.88762	0.49278	3658.17935
4524	7	8	12.5	466.42906	0.21283	0.02738	0.02545	18.6827	0.16126	0.27719	10.63236	0.49389	3785.04795
4525	7	8	13.5	458.40564	0.21234	0.02691	0.02544	18.63743	0.16224	0.27708	10.77192	0.49302	3717.92295
4526	7	8	14.5	415.51087	0.21149	0.02439	0.02709	18.77076	0.16738	0.29515	11.36593	0.4956	3432.9797
4527	7	8	15.5	352.25697	0.20891	0.02068	0.02823	18.53137	0.16699	0.30751	11.83169	0.49096	3725.30435
4528	7	8	16.5	269.57411	0.20439	0.01582	0.02857	17.78214	0.16359	0.31121	12.2669	0.47635	3853.6226
4529	7	8	17.5	177.21239	0.1704	0.0104	0.0	0.0	0.0	0.0	11.34921	0.14352	1523.2699
4530	7	8	18.5	95.76176	0.16562	0.00562	0.0	0.0	0.0	0.0	9.46819	0.14352	759.75631
4542	7	9	6.5	71.12972	0.16418	0.00418	0.0	0.0	0.0	0.0	9.39125	0.14352	548.21763
4543	7	9	7.5	151.73995	0.16891	0.00891	0.0	0.0	0.0	0.0	11.20437	0.14352	1291.49168
4544	7	9	8.5	239.85991	0.1945	0.01408	0.02042	15.26167	0.09193	0.22242	11.81727	0.42631	2075.1481
4545	7	9	9.5	322.77815	0.20558	0.01895	0.02663	17.87172	0.16027	0.29007	11.73784	0.4781	2765.0824
4546	7	9	10.5	395.76955	0.20928	0.02323	0.02605	18.339	0.16089	0.28378	11.2599	0.48722	3298.7297
4547	7	9	11.5	448.729	0.21195	0.02634	0.02561	18.60538	0.1611	0.27893	10.83733	0.4924	3658.17935
4548	7	9	12.5	466.89863	0.21275	0.02741	0.02534	18.66133	0.16121	0.27605	10.5851	0.49348	3785.04795
4549	7	9	13.5	457.08474	0.2122	0.02683	0.02537	18.608	0.1615	0.27634	10.74583	0.49245	3702.92935
4550	7	9	14.5	415.09357	0.21136	0.02437	0.027	18.74638	0.16747	0.29408	11.33106	0.49513	3427.04795
4551	7	9	15.5	352.13812	0.20912	0.02067	0.02845	18.58367	0.16759	0.30994	11.83601	0.49198	3747.67935
4552	7	9	16.5	269.67864	0.20413	0.01583	0.0283	17.72526	0.16354	0.30825	12.16979	0.47523	3831.2476
4553	7	9	17.5	178.22435	0.17046	0.01046	0.0	0.0	0.0	0.0	11.28557	0.14352	1515.04827
4554	7	9	18.5	95.86098	0.16563	0.00563	0.0	0.0	0.0	0.0	9.46435	0.14352	754.49168
4567	7	10	7.5	114.26048	0.16671	0.00671	0.0	0.0	0.0	0.0	9.28039	0.14352	871.96043
4568	7	10	8.5	212.3805	0.17247	0.01247	0.0	0.0	0.0	0.0	10.19602	0.14352	1699.23745
4569	7	10	9.5	307.55295	0.20292	0.01805	0.02486	17.32582	0.15997	0.27083	10.90088	0.46738	2530.07832
4570	7	10	10.5	388.7241	0.20769	0.02282	0.02487	18.01532	0.16069	0.27092	10.66094	0.48091	3155.5155
4571	7	10	11.5	436.178	0.21115	0.0256	0.02555	18.50979	0.16102	0.27834	10.80767	0.49054	3562.7476
4572	7	10	12.5	445.93	0.2128	0.02618	0.02663	18.81804	0.1612	0.29007	11.23883	0.49651	3744.78005
4573	7	10	13.5	447.48185	0.21227	0.02627	0.026	18.6903	0.16145	0.28327	11.09437	0.49404	3701.4797
4574	7	10	14.5	405.04223	0.21166	0.02378	0.02788	18.87992	0.16824	0.30375	11.71739	0.49771	3394.16145
4575	7	10	15.5	345.96052	0.20946	0.02031	0.02915	18.68434	0.16774	0.31753	12.15745	0.49393	3762.67295
4576	7	10	16.5	262.19825	0.20431	0.01539	0.02892	17.77931	0.16345	0.31506	12.51602	0.47629	3874.54795
4577	7	10	17.5	173.22474	0.17017	0.01017	0.0	0.0	0.0	0.0	11.32972	0.14352	1481.48577
4578	7	10	18.5	93.79795	0.16551	0.00551	0.0	0.0	0.0	0.0	9.40572	0.14352	737.71043
4591	7	11	7.5	128.40643	0.16754	0.00754	0.0	0.0	0.0	0.0	9.91292	0.14352	1017.39793
4592	7	11	8.5	223.75938	0.17313	0.01313	0.0	0.0	0.0	0.0	10.95347	0.14352	1858.1035
4593	7	11	9.5	318.69249	0.20424	0.01871	0.02553	17.58433	0.16014	0.27808	11.18248	0.47246	2662.87867
4594	7	11	10.5	387.39456	0.20851	0.02274	0.02577	18.21225	0.16081	0.2807	11.16276	0.48475	3203.29795
4595	7	11	11.5	432.45238	0.21157	0.02538	0.02619	18.62909	0.161	0.28528	11.15477	0.49286	3589.6047
4596	7	11	12.5	448.16524	0.21271	0.02631	0.0264	18.78195	0.16118	0.2876	11.14105	0.49581	3729.78645
4597	7	11	13.5	455.94264	0.2115	0.02676	0.02474	18.45607	0.16143	0.26951	10.46112	0.4895	3635.80435
4598	7	11	14.5	412.58004	0.20994	0.02422	0.02573	18.4368	0.167	0.28024	10.74898	0.48912	3318.07225
4599	7	11	15.5	339.6078	0.20633	0.01993	0.0264	18.0182	0.16699	0.28754	10.99918	0.48097	3231.47155
4600	7	11	16.5	254.20303	0.18262	0.01492	0.0077	10.78193	0.03692	0.08383	10.84114	0.33616	2939.1469
4601	7	11	17.5	161.16711	0.16946	0.00946	0.0	0.0	0.0	0.0	9.91724	0.14352	1422.44916
4602	7	11	18.5	80.40871	0.16472	0.00472	0.0	0.0	0.0	0.0	8.46225	0.14352	703.78548
4615	7	12	7.5	119.96882	0.16704	0.00704	0.0	0.0	0.0	0.0	9.35982	0.14352	916.71043
4616	7	12	8.5	207.11124	0.17216	0.01216	0.0	0.0	0.0	0.0	10.00154	0.14352	1635.80315
4617	7	12	9.5	291.16778	0.20057	0.01709	0.02348	16.83739	0.15946	0.2558	10.28898	0.45773	2334.6839
4618	7	12	10.5	378.63606	0.20652	0.02223	0.02429	17.80351	0.16064	0.26461	10.35884	0.47677	3030.09655
4619	7	12	11.5	443.44635	0.21065	0.02603	0.02462	18.34362	0.16101	0.26819	10.30944	0.48731	3543.2719
4620	7	12	12.5	469.52802	0.21228	0.02756	0.02472	18.53394	0.16125	0.26923	10.27348	0.49101	3741.7476
4621	7	12	13.5	459.11269	0.21214	0.02695	0.02519	18.57913	0.16145	0.27438	10.66822	0.49189	3717.92295
4622	7	12	14.5	417.31313	0.21159	0.0245	0.0271	18.80007	0.16928	0.29516	11.24229	0.49617	3412.05435
4623	7	12	15.5	353.47475	0.20921	0.02075	0.02846	18.5976	0.16784	0.31003	11.80439	0.49225	3764.1226
4624	7	12	16.5	269.87991	0.20403	0.01584	0.02819	17.70243	0.16375	0.30708	12.10062	0.47478	3808.8726
4625	7	12	17.5	175.35623	0.17029	0.01029	0.0	0.0	0.0	0.0	11.15922	0.14352	1489.7074
4626	7	12	18.5	94.16006	0.16553	0.00553	0.0	0.0	0.0	0.0	9.32206	0.14352	760.08543
4638	7	13	6.5	68.31065	0.16401	0.00401	0.0	0.0	0.0	0.0	9.16605	0.14352	517.452
4639	7	13	7.5	149.14721	0.16875	0.00875	0.0	0.0	0.0	0.0	10.93508	0.14352	1248.22462
4640	7	13	8.5	235.34984	0.17743	0.01382	0.00362	7.61652	0.02074	0.03942	11.77536	0.27403	2030.3981
4641	7	13	9.5	324.59701	0.20492	0.01905	0.02587	17.71559	0.16023	0.28176	11.37701	0.47504	2729.27885
4642	7	13	10.5	395.20735	0.20874	0.0232	0.02555	18.21955	0.16079	0.27827	11.03788	0.4849	3248.04795
4643	7	13	11.5	443.27654	0.21154	0.02602	0.02552	18.54923	0.16108	0.27796	10.79626	0.49131	3613.42935
4644	7	13	12.5	468.26859	0.21263	0.02749	0.02514	18.62359	0.16121	0.27384	10.47198	0.49275	3770.05435
4645	7	13	13.5	460.50924	0.21208	0.02703	0.02505	18.55981	0.16185	0.2729	10.61064	0.49151	3702.92935
4646	7	13	14.5	417.10496	0.21142	0.02448	0.02694	18.75718	0.16865	0.29344	11.22206	0.49534	3412.05435
4647	7	13	15.5	352.69464	0.20869	0.0207	0.02798	18.48797	0.16769	0.30482	11.69356	0.49012	3764.1226
4648	7	13	16.5	258.67585	0.19472	0.01518	0.01953	15.23792	0.09874	0.21278	11.2123	0.42583	3185.2719
4649	7	13	17.5	149.54943	0.16878	0.00878	0.0	0.0	0.0	0.0	9.41267	0.14352	1151.25223
4662	7	14	6.5	67.50736	0.16396	0.00396	0.0	0.0	0.0	0.0	8.95071	0.14352	506.2645
4663	7	14	7.5	138.40068	0.16812	0.00812	0.0	0.0	0.0	0.0	10.4883	0.14352	1130.75587
4664	7	14	8.5	211.21738	0.1724	0.0124	0.0	0.0	0.0	0.0	10.52041	0.14352	1723.8535
4665	7	14	9.5	269.54785	0.18382	0.01582	0.008	11.17274	0.04666	0.08712	9.42005	0.34398	2057.89569
4666	7	14	10.5	328.18377	0.20065	0.01926	0.02139	16.67365	0.15983	0.23297	9.12689	0.45448	2462.09534
4667	7	14	11.5	370.67267	0.20308	0.02176	0.02133	17.01693	0.16023	0.2323	8.87442	0.46128	2754.08199
4668	7	14	12.5	381.65276	0.20417	0.0224	0.02177	17.21561	0.16052	0.23712	9.02954	0.46521	2864.50734
4669	7	14	13.5	418.79222	0.20729	0.02458	0.02271	17.73095	0.16206	0.24741	9.50645	0.47534	3182.23944
4670	7	14	14.5	404.28976	0.20887	0.02373	0.02514	18.25329	0.16831	0.27383	10.3642	0.48555	3164.34655
4671	7	14	15.5	351.68336	0.20824	0.02064	0.0276	18.3931	0.16776	0.30063	11.43503	0.48827	3541.82225
4672	7	14	16.5	249.24252	0.17836	0.01463	0.00373	7.86027	0.00637	0.04065	10.81057	0.27871	2894.3969
4673	7	14	17.5	145.53016	0.16854	0.00854	0.0	0.0	0.0	0.0	9.23253	0.14352	1365.78684
4686	7	15	6.5	66.9728	0.16393	0.00393	0.0	0.0	0.0	0.0	9.03095	0.14352	505.34183
4687	7	15	7.5	139.47594	0.16819	0.00819	0.0	0.0	0.0	0.0	10.68494	0.14352	1153.13087
4688	7	15	8.5	220.04608	0.17292	0.01292	0.0	0.0	0.0	0.0	10.63838	0.14352	1802.166
4689	7	15	9.5	269.40718	0.18172	0.01581	0.00591	9.93784	0.03779	0.06437	9.38173	0.31935	2045.98337
4690	7	15	10.5	366.15345	0.20498	0.02149	0.02348	17.51231	0.1604	0.2558	10.01008	0.47105	2874.9212
4691	7	15	11.5	437.94323	0.21	0.02571	0.02429	18.22976	0.16094	0.2646	10.1509	0.4851	3470.21515
4692	7	15	12.5	470.7951	0.21217	0.02764	0.02454	18.50069	0.16122	0.26731	10.18546	0.49037	3726.754
4693	7	15	13.5	467.61398	0.21219	0.02745	0.02474	18.53227	0.16185	0.2695	10.45519	0.49098	3740.29795
4694	7	15	14.5	419.1796	0.21135	0.02461	0.02675	18.73214	0.16903	0.29138	11.15962	0.49485	3412.05435
4695	7	15	15.5	355.61954	0.20914	0.02087	0.02826	18.573	0.16812	0.3079	11.69133	0.49177	3786.4976
4696	7	15	16.5	269.873	0.20358	0.01584	0.02774	17.6091	0.16369	0.3022	11.92278	0.47295	3749.129
4697	7	15	17.5	176.24574	0.17035	0.01035	0.0	0.0	0.0	0.0	11.07694	0.14352	1482.2106
4698	7	15	18.5	92.91414	0.16545	0.00545	0.0	0.0	0.0	0.0	9.21763	0.14352	765.67918
4710	7	16	6.5	66.05075	0.16388	0.00388	0.0	0.0	0.0	0.0	9.02992	0.14352	497.69267
4711	7	16	7.5	145.59958	0.16855	0.00855	0.0	0.0	0.0	0.0	10.86428	0.14352	1214.66212
4712	7	16	8.5	231.16026	0.17357	0.01357	0.0	0.0	0.0	0.0	11.6136	0.14352	1982.68222
4713	7	16	9.5	318.73845	0.20402	0.01871	0.02531	17.53471	0.16016	0.27571	11.14452	0.47149	2643.46955
4714	7	16	10.5	378.20073	0.20644	0.0222	0.02424	17.78865	0.16058	0.2641	10.40008	0.47647	3021.2655
4715	7	16	11.5	404.78084	0.20664	0.02376	0.02288	17.66315	0.1607	0.24927	9.52085	0.47401	3115.11444
4716	7	16	12.5	383.38031	0.20408	0.0225	0.02158	17.18098	0.1605	0.23504	8.91378	0.46452	2864.50734
4717	7	16	13.5	374.71591	0.2031	0.022	0.0211	16.99971	0.16129	0.22987	8.90216	0.46094	2752.63234
4718	7	16	14.5	329.59581	0.2013	0.01935	0.02195	16.84691	0.16247	0.23914	9.52637	0.45792	2459.92087
4719	7	16	15.5	278.16516	0.18067	0.01633	0.00435	8.83154	0.03122	0.04733	9.20304	0.29756	2637.72489
4720	7	16	16.5	208.59849	0.17224	0.01224	0.0	0.0	0.0	0.0	9.16866	0.14352	1885.60109
4721	7	16	17.5	131.25696	0.1677	0.0077	0.0	0.0	0.0	0.0	8.74938	0.14352	1123.61261
4734	7	17	6.5	60.27468	0.16354	0.00354	0.0	0.0	0.0	0.0	8.96276	0.14352	452.76147
4735	7	17	7.5	134.04238	0.16787	0.00787	0.0	0.0	0.0	0.0	10.0871	0.14352	1073.33543
4736	7	17	8.5	206.00826	0.17209	0.01209	0.0	0.0	0.0	0.0	10.25237	0.14352	1645.541
4737	7	17	9.5	266.52226	0.17817	0.01564	0.00252	6.65942	0.01929	0.02746	9.42856	0.25588	2034.79587
4738	7	17	10.5	282.45753	0.18189	0.01658	0.00531	9.66597	0.03808	0.05784	8.66473	0.31397	2057.17087
4744	7	17	16.5	207.46731	0.17222	0.01218	5e-05	0.0	6e-05	0.00049	9.25568	0.14352	2121.26342
4745	7	17	17.5	166.31186	0.16976	0.00976	0.0	0.0	0.0	0.0	10.24129	0.14352	1432.91192
4746	7	17	18.5	90.10829	0.16529	0.00529	0.0	0.0	0.0	0.0	9.33136	0.14352	701.19094
4758	7	18	6.5	64.31926	0.16378	0.00378	0.0	0.0	0.0	0.0	8.87285	0.14352	478.11455
4759	7	18	7.5	145.14267	0.16852	0.00852	0.0	0.0	0.0	0.0	10.71949	0.14352	1197.88087
4760	7	18	8.5	231.12579	0.17357	0.01357	0.0	0.0	0.0	0.0	11.46018	0.14352	1960.30722
4761	7	18	9.5	317.47551	0.2038	0.01864	0.02516	17.48847	0.16013	0.27408	11.06468	0.47058	2621.09455
4762	7	18	10.5	394.39158	0.20771	0.02315	0.02456	17.98597	0.16073	0.26755	10.55666	0.48034	3161.44725
4763	7	18	11.5	441.73525	0.21027	0.02593	0.02434	18.26667	0.16101	0.26513	10.24619	0.48581	3495.6226
4764	7	18	12.5	464.42818	0.2113	0.02726	0.02404	18.344	0.16109	0.26189	9.97799	0.48732	3631.32225
4765	7	18	13.5	443.63303	0.20937	0.02604	0.02333	18.04635	0.16192	0.25409	9.74432	0.48152	3404.53979
4766	7	18	14.5	383.17153	0.20646	0.02249	0.02397	17.81494	0.16743	0.26108	9.93676	0.47699	2934.66479
4767	7	18	15.5	297.19103	0.19908	0.01745	0.02164	16.4405	0.1494	0.23572	9.60765	0.44985	2845.03164
4768	7	18	16.5	217.57879	0.17281	0.01277	4e-05	0.0	6e-05	0.00044	9.40261	0.14352	2256.96307
4769	7	18	17.5	135.5105	0.16795	0.00795	0.0	0.0	0.0	0.0	8.85341	0.14352	1320.31201
4782	7	19	6.5	51.87944	0.16305	0.00305	0.0	0.0	0.0	0.0	8.38736	0.14352	369.97574
4786	7	19	10.5	219.15666	0.17286	0.01286	0.0	0.0	0.0	0.0	7.86352	0.14352	1510.4996
4787	7	19	11.5	318.60734	0.19851	0.0187	0.01981	16.17648	0.1593	0.21581	8.40827	0.4446	2291.31697
4788	7	19	12.5	385.65429	0.2039	0.02264	0.02126	17.11963	0.16052	0.23164	8.78404	0.46331	2843.58199
4789	7	19	13.5	431.84915	0.20805	0.02535	0.0227	17.82713	0.16339	0.24726	9.43151	0.47723	3249.36444
4790	7	19	14.5	416.16334	0.20976	0.02443	0.02533	18.38653	0.16876	0.27598	10.42026	0.48815	3252.3969
4791	7	19	15.5	354.40467	0.20838	0.0208	0.02757	18.41464	0.16824	0.30035	11.45487	0.48869	3771.504
4792	7	19	16.5	269.43677	0.20393	0.01582	0.02812	17.68433	0.1644	0.30629	11.98986	0.47443	3875.9976
4793	7	19	17.5	174.94907	0.17027	0.01027	0.0	0.0	0.0	0.0	11.01431	0.14352	1467.3324
4794	7	19	18.5	91.87078	0.16539	0.00539	0.0	0.0	0.0	0.0	9.1873	0.14352	754.12927
4806	7	20	6.5	63.62077	0.16373	0.00373	0.0	0.0	0.0	0.0	8.74523	0.14352	466.92705
4807	7	20	7.5	142.6776	0.16838	0.00838	0.0	0.0	0.0	0.0	10.69247	0.14352	1179.25427
4808	7	20	8.5	229.3934	0.17347	0.01347	0.0	0.0	0.0	0.0	11.41793	0.14352	1937.93222
4809	7	20	9.5	316.86551	0.20355	0.0186	0.02495	17.43506	0.16009	0.27183	10.98142	0.46953	2606.21635
4810	7	20	10.5	379.38253	0.20614	0.02227	0.02387	17.70907	0.16065	0.25999	10.24403	0.47491	2998.8905
4811	7	20	11.5	404.77267	0.20642	0.02376	0.02266	17.60846	0.16069	0.24682	9.40984	0.47294	3092.73944
4812	7	20	12.5	386.19551	0.20384	0.02267	0.02117	17.09989	0.1605	0.23063	8.7611	0.46292	2842.13234
4813	7	20	13.5	429.98505	0.20781	0.02524	0.02257	17.77445	0.16208	0.2459	9.41277	0.4762	3249.36444
4814	7	20	14.5	417.59429	0.20977	0.02451	0.02526	18.38375	0.16924	0.27519	10.36386	0.48809	3252.3969
4815	7	20	15.5	354.80262	0.20853	0.02083	0.0277	18.44544	0.16841	0.30175	11.471	0.48929	3726.754
4816	7	20	16.5	259.98964	0.19572	0.01526	0.02046	15.48118	0.09842	0.22283	11.37258	0.43071	3362.82225
4817	7	20	17.5	159.74487	0.16938	0.00938	0.0	0.0	0.0	0.0	9.66572	0.14352	1489.57425
4830	7	21	6.5	59.35511	0.16348	0.00348	0.0	0.0	0.0	0.0	8.9862	0.14352	444.37084
4831	7	21	7.5	141.6103	0.16831	0.00831	0.0	0.0	0.0	0.0	10.69401	0.14352	1169.91212
4832	7	21	8.5	230.29565	0.17352	0.01352	0.0	0.0	0.0	0.0	11.45219	0.14352	1949.11972
4833	7	21	9.5	322.65093	0.20397	0.01894	0.02503	17.50454	0.16015	0.27261	11.03508	0.4709	2653.93222
4834	7	21	10.5	397.008	0.20784	0.0233	0.02453	17.99864	0.16076	0.26723	10.59867	0.48058	3182.3726
4835	7	21	11.5	443.65397	0.21047	0.02604	0.02443	18.29994	0.161	0.26608	10.29582	0.48646	3517.9976
4836	7	21	12.5	466.25738	0.21107	0.02737	0.0237	18.27562	0.16107	0.25821	9.83098	0.48599	3608.94725
4837	7	21	13.5	463.10641	0.21082	0.02718	0.02363	18.25484	0.16327	0.25744	9.92036	0.48558	3585.1226
4838	7	21	14.5	421.22509	0.21021	0.02473	0.02549	18.46319	0.16957	0.27763	10.49559	0.48964	3294.2476
4839	7	21	15.5	353.02603	0.20781	0.02072	0.02709	18.29446	0.16843	0.29509	11.15021	0.48636	3564.19725
4840	7	21	16.5	259.66787	0.19449	0.01524	0.01925	15.13048	0.09053	0.2097	11.28477	0.42367	3364.2719
4841	7	21	17.5	164.84149	0.16968	0.00968	0.0	0.0	0.0	0.0	10.1551	0.14352	1432.91192
4842	7	21	18.5	80.66046	0.16473	0.00473	0.0	0.0	0.0	0.0	8.66169	0.14352	699.67467
4854	7	22	6.5	61.35237	0.1636	0.0036	0.0	0.0	0.0	0.0	8.67348	0.14352	449.96459
4855	7	22	7.5	135.3988	0.16795	0.00795	0.0	0.0	0.0	0.0	10.55601	0.14352	1108.01846
4856	7	22	8.5	228.82066	0.17343	0.01343	0.0	0.0	0.0	0.0	11.3223	0.14352	1926.74472
4857	7	22	9.5	317.16204	0.20338	0.01862	0.02477	17.39416	0.16005	0.2698	10.91191	0.46872	2595.75367
4858	7	22	10.5	386.25712	0.20657	0.02267	0.0239	17.76957	0.16061	0.26036	10.27084	0.4761	3049.57225
4859	7	22	11.5	423.23134	0.20779	0.02484	0.02295	17.80954	0.16086	0.24995	9.52968	0.47688	3247.91479
4860	7	22	12.5	425.18171	0.20727	0.02496	0.02231	17.66877	0.16085	0.24306	9.15778	0.47412	3204.61444
4861	7	22	13.5	381.8887	0.20344	0.02242	0.02102	17.03402	0.16112	0.22902	8.85063	0.46162	2797.38234
4862	7	22	14.5	301.05726	0.19486	0.01767	0.01719	15.16129	0.1136	0.18721	8.76945	0.42429	2323.36324
4880	7	23	8.5	165.02809	0.16969	0.00969	0.0	0.0	0.0	0.0	8.77263	0.14352	1212.38778
4881	7	23	9.5	228.69235	0.17342	0.01342	0.0	0.0	0.0	0.0	8.61493	0.14352	1656.66192
4882	7	23	10.5	330.34349	0.20032	0.01939	0.02093	16.57604	0.15975	0.22799	8.96424	0.45255	2438.99552
4883	7	23	11.5	406.6656	0.20619	0.02387	0.02232	17.53865	0.16064	0.24313	9.25839	0.47157	3070.36444
4884	7	23	12.5	453.25814	0.20947	0.02661	0.02286	17.99085	0.16103	0.24904	9.39411	0.48043	3449.28979
4885	7	23	13.5	454.48098	0.20988	0.02668	0.0232	18.08251	0.16132	0.25273	9.75026	0.48222	3497.07225
4886	7	23	14.5	419.00147	0.20946	0.0246	0.02486	18.28709	0.16761	0.27083	10.3652	0.48621	3273.32225
4887	7	23	15.5	353.77327	0.20787	0.02077	0.0271	18.30272	0.16845	0.29523	11.14834	0.48652	3608.94725
4888	7	23	16.5	255.63089	0.18205	0.01501	0.00705	10.40658	0.0261	0.07679	10.86945	0.32867	3095.7719
4889	7	23	17.5	148.51804	0.16872	0.00872	0.0	0.0	0.0	0.0	9.50514	0.14352	1245.91691
4975	7	27	7.5	98.15677	0.16576	0.00576	0.0	0.0	0.0	0.0	8.68093	0.14352	715.73114
4976	7	27	8.5	188.86153	0.17109	0.01109	0.0	0.0	0.0	0.0	9.4029	0.14352	1433.70332
4977	7	27	9.5	288.38513	0.19906	0.01693	0.02213	16.47605	0.15889	0.24105	9.75283	0.45056	2226.4996
4978	7	27	10.5	331.6444	0.20006	0.01947	0.02059	16.50125	0.15973	0.22434	8.81023	0.45106	2427.80802
4979	7	27	11.5	321.43383	0.19807	0.01887	0.0192	16.03729	0.15907	0.20913	8.12826	0.44182	2268.94197
5004	7	28	12.5	335.81016	0.19901	0.01971	0.01929	16.19411	0.15961	0.21017	8.07583	0.44495	2359.16679
5005	7	28	13.5	369.4609	0.2019	0.02169	0.02021	16.72159	0.16026	0.22017	8.57225	0.45543	2649.31697
5006	7	28	14.5	364.35731	0.20264	0.02139	0.02125	16.96476	0.16248	0.23153	9.12841	0.46025	2798.83199
5007	7	28	15.5	326.34138	0.20291	0.01916	0.02376	17.28197	0.16625	0.25878	10.01408	0.46651	3179.20699
5008	7	28	16.5	257.0602	0.18325	0.01509	0.00816	11.00587	0.02707	0.0889	11.03548	0.34064	3341.8969
5009	7	28	17.5	169.07808	0.16992	0.00992	0.0	0.0	0.0	0.0	10.57379	0.14352	1410.53684
5010	7	28	18.5	83.40854	0.1649	0.0049	0.0	0.0	0.0	0.0	8.95933	0.14352	714.97298
5022	7	29	6.5	48.33254	0.16284	0.00284	0.0	0.0	0.0	0.0	7.97039	0.14352	335.49057
5023	7	29	7.5	113.69178	0.16667	0.00667	0.0	0.0	0.0	0.0	9.29727	0.14352	865.64186
5024	7	29	8.5	181.89232	0.17068	0.01068	0.0	0.0	0.0	0.0	8.87224	0.14352	1341.23745
5025	7	29	9.5	228.11375	0.17339	0.01339	0.0	0.0	0.0	0.0	8.41291	0.14352	1623.09942
5031	7	29	15.5	256.9674	0.1762	0.01508	0.00111	3.576	0.00154	0.01213	8.74489	0.20038	2582.85022
5032	7	29	16.5	235.74236	0.1765	0.01384	0.00267	6.45113	0.00323	0.02905	9.99758	0.25198	2662.8121
5033	7	29	17.5	165.04663	0.16969	0.00969	0.0	0.0	0.0	0.0	10.33692	0.14352	1432.1871
5034	7	29	18.5	81.53954	0.16479	0.00479	0.0	0.0	0.0	0.0	8.92008	0.14352	714.97298
5051	7	30	11.5	299.07047	0.18236	0.01756	0.0048	9.45391	0.03783	0.05231	7.76952	0.30978	2067.56697
5052	7	30	12.5	337.6672	0.19874	0.01982	0.01892	16.10805	0.15954	0.20607	7.91893	0.44323	2356.20092
5053	7	30	13.5	309.08394	0.19045	0.01814	0.01231	13.55525	0.08122	0.13409	7.895	0.39196	2123.50447
